4.948405934343434609e+01 8.910069444444444287e+01 4.005192550505050519e+01
4.946997316919191690e+01 8.922155145202020776e+01 3.995892518939393767e+01
4.953468276515151558e+01 8.923181029040404155e+01 4.001889993686868507e+01
4.952813289141413833e+01 8.927339804292928704e+01 4.006111900252525260e+01
4.956482796717171624e+01 8.931640625000000000e+01 4.009907670454545325e+01
4.953125000000000000e+01 8.929056186868686495e+01 4.010795454545454675e+01
4.950453756313131493e+01 8.932098327020202078e+01 4.008755523989898961e+01
4.956451231060606233e+01 8.936627998737374412e+01 4.011328125000000000e+01
4.961272885101010388e+01 8.936225536616161946e+01 4.015281723484848442e+01
4.961379419191919027e+01 8.941729797979797922e+01 4.014993686868687206e+01
4.962196180555555713e+01 8.946634311868686495e+01 4.014989741161615910e+01
4.964898989898989612e+01 8.949984217171717660e+01 4.017092803030303116e+01
4.968801294191919027e+01 8.952718592171717660e+01 4.018943339646464352e+01
4.967889835858586167e+01 8.956384154040404155e+01 4.020036300505050519e+01
4.968671085858586167e+01 8.959327651515151558e+01 4.020422979797979934e+01
4.966978377525252597e+01 8.962795928030303116e+01 4.019314236111111427e+01
4.971160827020202078e+01 8.968367266414141170e+01 4.022455018939393767e+01
4.972309027777777857e+01 8.971014835858585457e+01 4.021472537878787534e+01
4.973492739898989612e+01 8.975481376262625588e+01 4.020983270202020066e+01
4.971176609848485128e+01 8.973102114898989612e+01 4.012180397727272663e+01
4.946275252525252597e+01 8.949700126262625588e+01 3.985590277777777857e+01
4.937172506313131493e+01 8.934173768939393767e+01 3.976613794191919027e+01
4.944014362373737725e+01 8.932019412878787534e+01 3.981482796717171624e+01
4.945107323232323182e+01 8.930713383838383379e+01 3.986789772727272663e+01
4.947747001262626299e+01 8.927639678030303116e+01 3.990486900252525260e+01
4.943087121212121104e+01 8.923169191919191690e+01 3.992455808080808310e+01
4.940948547979797922e+01 8.915822285353534937e+01 3.991769255050505194e+01
4.939879261363636687e+01 8.914279513888888573e+01 3.996839488636363313e+01
4.941765309343434609e+01 8.912961647727273373e+01 3.998851799242424221e+01
4.942842487373737725e+01 8.910882260101010388e+01 3.999818497474747403e+01
4.941856060606060908e+01 8.906392045454545325e+01 4.000741792929292728e+01
4.898287563131312794e+01 8.864607007575757791e+01 3.984098800505050519e+01
4.901053503787878896e+01 8.864516256313130782e+01 3.985854640151514872e+01
4.900264362373737725e+01 8.865336963383838054e+01 3.988190498737373701e+01
4.903034248737373701e+01 8.865613162878787534e+01 3.989445233585858830e+01
4.907023358585858830e+01 8.870833333333332860e+01 3.992171717171716949e+01
4.905105744949494806e+01 8.870825441919191690e+01 3.992290088383838054e+01
4.904995265151514872e+01 8.872908775252524549e+01 3.992747790404040131e+01
4.905109690656565391e+01 8.874049084595959869e+01 3.992120422979797922e+01
4.904573074494949481e+01 8.875248579545454675e+01 3.992941130050505194e+01
4.908866003787878896e+01 8.879304766414141170e+01 3.994266887626262275e+01
4.907161458333333570e+01 8.880172821969696884e+01 3.993225220959595845e+01
4.910444286616161946e+01 8.883471433080808310e+01 3.995482165404040131e+01
4.911643781565656752e+01 8.886075599747475451e+01 3.994961332070707272e+01
4.912665719696969546e+01 8.890696022727273373e+01 3.996425189393939092e+01
4.914851641414141170e+01 8.894681186868686495e+01 3.996085858585858830e+01
4.916674558080808310e+01 8.897892992424242209e+01 3.998319128787878896e+01
4.916575915404040131e+01 8.901282354797979224e+01 3.998473011363636687e+01
4.919554924242424221e+01 8.904308712121212466e+01 3.997585227272727337e+01
4.916157670454545325e+01 8.907729640151515582e+01 3.994472064393939092e+01
4.904936079545454675e+01 8.894345801767676107e+01 3.974238478535353636e+01
4.890490845959595845e+01 8.873461174242424931e+01 3.957331123737373701e+01
4.889709595959595845e+01 8.868434343434343248e+01 3.960369318181817988e+01
4.891228693181817988e+01 8.865471117424242209e+01 3.965991950757575779e+01
4.890692077020202078e+01 8.861809501262625588e+01 3.969306344696969546e+01
4.888340435606060908e+01 8.856837910353534937e+01 3.970205965909090651e+01
4.888151041666666430e+01 8.852276672979797922e+01 3.970742582070707272e+01
4.888762626262626299e+01 8.849384469696970257e+01 3.974857954545454675e+01
4.890104166666666430e+01 8.849368686868686495e+01 3.979750631313131493e+01
4.889145359848485128e+01 8.847289299242424931e+01 3.981569602272727337e+01
4.889224273989898961e+01 8.843264678030303116e+01 3.981680082070707272e+01
4.888115530303030454e+01 8.841066919191919737e+01 3.983491161616161946e+01
4.885637626262626299e+01 8.839567550505050519e+01 3.984059343434343248e+01
4.887425031565656752e+01 8.840739425505050519e+01 3.987425031565656752e+01
4.891536458333333570e+01 8.842909564393939092e+01 3.991047190656565391e+01
4.890348800505050519e+01 8.843552714646465063e+01 3.990017361111111427e+01
4.894550978535353636e+01 8.845576862373737015e+01 3.992799084595959869e+01
4.893978851010101039e+01 8.848129734848484418e+01 3.994799558080808310e+01
4.897391887626262275e+01 8.850532670454545325e+01 3.995955650252525260e+01
4.895643939393939092e+01 8.853077651515151558e+01 3.994965277777777857e+01
4.901716382575757791e+01 8.856482796717172334e+01 3.996823705808080973e+01
4.899625157828283051e+01 8.858984375000000000e+01 3.996831597222222143e+01
4.901968907828283051e+01 8.862969539141414543e+01 3.996665877525252597e+01
4.901396780303030454e+01 8.865759154040404155e+01 3.997088068181817988e+01
4.904000946969696884e+01 8.869262941919191690e+01 3.997766729797979934e+01
4.904640151515151558e+01 8.872253787878787534e+01 3.998106060606060908e+01
4.907153566919191690e+01 8.875493213383838054e+01 3.998141571969696884e+01
4.904150883838384090e+01 8.880555555555555713e+01 3.997616792929292728e+01
4.909347380050505194e+01 8.884079071969696884e+01 3.998788667929292728e+01
4.902876420454545325e+01 8.882106218434343248e+01 3.989461016414141170e+01
4.894105113636363313e+01 8.865995896464646364e+01 3.969199810606060908e+01
4.879940025252525260e+01 8.853235479797979224e+01 3.961079545454545325e+01
4.883368844696969546e+01 8.851629577020202078e+01 3.964461016414141170e+01
4.885752051767676818e+01 8.852734375000000000e+01 3.972652304292929415e+01
4.889776672979797922e+01 8.848962279040404155e+01 3.974782986111111427e+01
4.888206281565656752e+01 8.848575599747475451e+01 3.976258680555555713e+01
4.886063762626262275e+01 8.846922348484848442e+01 3.976688762626262275e+01
4.886841066919191690e+01 8.845616319444444287e+01 3.979659880050505194e+01
4.890577651515151558e+01 8.845486111111111427e+01 3.980981691919191690e+01
4.884891887626262275e+01 8.842451862373737015e+01 3.980788352272727337e+01
4.888640309343434609e+01 8.842049400252524549e+01 3.980243844696969546e+01
4.884367108585858830e+01 8.843016098484848442e+01 3.983451704545454675e+01
4.890048926767676818e+01 8.843347537878787534e+01 3.983514835858586167e+01
4.885416666666666430e+01 8.846180555555555713e+01 3.987215909090909349e+01
4.891252367424242209e+01 8.847660195707071296e+01 3.987732796717171624e+01
4.890044981060606233e+01 8.850240688131313505e+01 3.988766571969696884e+01
4.894018308080808310e+01 8.852604166666667140e+01 3.989930555555555713e+01
4.893252840909090651e+01 8.855468750000000000e+01 3.990206755050505194e+01
4.896736900252525260e+01 8.857879577020202078e+01 3.990376420454545325e+01
4.896543560606060908e+01 8.861316287878787534e+01 3.990514520202020066e+01
4.898942550505050519e+01 8.864030934343433898e+01 3.991051136363636687e+01
4.898859690656565391e+01 8.865763099747475451e+01 3.991504892676767469e+01
4.902422664141413833e+01 8.871898674242424931e+01 3.992574179292929415e+01
4.900378787878787534e+01 8.874258207070707272e+01 3.992329545454545325e+01
4.906632733585858830e+01 8.880370107323231821e+01 3.993217329545454675e+01
4.903914141414141170e+01 8.884816919191919737e+01 3.995707070707070585e+01
4.911312342171716949e+01 8.886517518939393767e+01 3.995308554292929415e+01
4.908088699494949481e+01 8.889480744949494806e+01 3.993694760101010388e+01
4.909749842171716949e+01 8.892183554292928704e+01 3.991047190656565391e+01
4.895497948232323182e+01 8.881798453282827666e+01 3.974064867424242209e+01
4.889745107323232531e+01 8.868469854797979224e+01 3.961541193181817988e+01
4.887263257575757791e+01 8.864977904040404155e+01 3.962500000000000000e+01
4.890119949494949481e+01 8.866524621212121815e+01 3.967724116161615910e+01
4.894152462121212466e+01 8.867889835858585457e+01 3.970714962121212466e+01
4.895138888888888573e+01 8.867045454545454675e+01 3.972790404040404155e+01
4.896204229797979934e+01 8.867053345959595845e+01 3.974313446969696884e+01
4.897892992424242209e+01 8.869294507575757791e+01 3.975733901515151558e+01
4.894053819444444287e+01 8.868880208333332860e+01 3.976124526515151558e+01
4.894199810606060908e+01 8.868063446969696884e+01 3.974045138888888573e+01
4.892724116161615910e+01 8.865246212121212466e+01 3.972601010101010388e+01
4.895241477272727337e+01 8.866390467171717660e+01 3.974313446969696884e+01
4.892830650252525260e+01 8.867751736111111427e+01 3.974348958333333570e+01
4.896914457070707272e+01 8.872040719696970257e+01 3.977107007575757791e+01
4.899364741161615910e+01 8.873259943181818699e+01 3.979194286616161946e+01
4.901566445707070585e+01 8.878065814393939092e+01 3.978618213383838054e+01
4.899104324494949481e+01 8.881348642676768179e+01 3.979186395202020066e+01
4.902627840909090651e+01 8.884114583333332860e+01 3.980074179292929415e+01
4.903657670454545325e+01 8.887401357323231821e+01 3.979699337121212466e+01
4.904312657828283051e+01 8.890360637626262985e+01 3.982200915404040131e+01
4.903779987373737725e+01 8.892558396464646364e+01 3.982015467171716949e+01
4.908858112373737725e+01 8.896263415404040131e+01 3.982090435606060908e+01
4.906273674242424221e+01 8.900339330808080263e+01 3.981715593434343248e+01
4.910231218434343248e+01 8.905038667929292728e+01 3.982784880050505194e+01
4.913253630050505194e+01 8.909055397727273373e+01 3.983566130050505194e+01
4.916631155303030454e+01 8.913869160353534937e+01 3.983439867424242209e+01
4.915289614898989612e+01 8.917483428030303116e+01 3.982650726010101039e+01
4.917945075757575779e+01 8.917597853535353636e+01 3.978819444444444287e+01
4.898595328282828376e+01 8.902619949494949481e+01 3.959280303030303116e+01
4.895497948232323182e+01 8.892909564393939092e+01 3.948622948232323182e+01
4.893963068181817988e+01 8.889543876262625588e+01 3.950102588383838054e+01
4.897107796717171624e+01 8.889389993686869218e+01 3.954746685606060908e+01
4.897088068181817988e+01 8.889291351010101039e+01 3.957267992424242209e+01
4.898382260101010388e+01 8.888991477272726627e+01 3.958372790404040131e+01
4.898615056818182012e+01 8.888656092171717660e+01 3.961288667929292728e+01
4.898050820707070585e+01 8.889054608585858830e+01 3.963833648989898961e+01
4.898626893939393767e+01 8.888809974747475451e+01 3.963762626262626299e+01
4.898196811868687206e+01 8.887764362373737015e+01 3.964232165404040131e+01
4.896953914141413833e+01 8.888446969696970257e+01 3.963573232323232531e+01
4.899001736111111427e+01 8.888395675505050519e+01 3.962354008838384090e+01
4.902714646464646364e+01 8.890009469696970257e+01 3.965561868686868507e+01
4.903843118686868507e+01 8.892384785353534937e+01 3.968805239898989612e+01
4.900303819444444287e+01 8.893722380050505194e+01 3.968848642676767469e+01
4.903768150252525260e+01 8.897312973484848442e+01 3.971271306818182012e+01
4.904651988636363313e+01 8.898764993686869218e+01 3.969408933080808310e+01
4.906699810606060908e+01 8.903527462121212466e+01 3.969894255050505194e+01
4.902138573232323182e+01 8.905263573232323893e+01 3.968710542929292728e+01
4.908546401515151558e+01 8.909840593434343248e+01 3.970178345959595845e+01
4.909351325757575779e+01 8.912050189393939092e+01 3.971661931818182012e+01
4.912042297979797922e+01 8.916066919191919737e+01 3.971259469696969546e+01
4.912756470959595845e+01 8.920647885101010388e+01 3.972036773989898961e+01
4.916051136363636687e+01 8.924131944444444287e+01 3.974321338383838054e+01
4.917487373737373701e+01 8.929813762626262985e+01 3.974857954545454675e+01
4.918414614898989612e+01 8.934039614898989612e+01 3.976605902777777857e+01
4.920482165404040131e+01 8.939121685606060908e+01 3.975974589646464352e+01
4.924459438131312794e+01 8.942372948232323893e+01 3.974554135101010388e+01
4.920888573232323182e+01 8.944152462121212466e+01 3.970762310606060908e+01
4.910140467171716949e+01 8.932583648989898961e+01 3.952785669191919027e+01
4.899001736111111427e+01 8.915352746212121815e+01 3.937022569444444287e+01
4.898615056818182012e+01 8.910420612373737015e+01 3.935752051767676818e+01
4.897305082070707272e+01 8.908589804292928704e+01 3.942112531565656752e+01
4.903038194444444287e+01 8.906778724747475451e+01 3.944767992424242209e+01
4.897967960858586167e+01 8.903476167929292728e+01 3.946863162878787534e+01
4.895529513888888573e+01 8.897139362373737015e+01 3.946334438131312794e+01
4.894862689393939092e+01 8.895667613636364024e+01 3.950244633838384090e+01
4.898125789141413833e+01 8.894353693181818699e+01 3.952055713383838054e+01
4.896519886363636687e+01 8.893505366161616621e+01 3.953353851010101039e+01
4.898315183080808310e+01 8.893390940656566102e+01 3.954328440656565391e+01
4.898512468434343248e+01 8.891710069444444287e+01 3.954683554292929415e+01
4.897206439393939092e+01 8.892471590909090651e+01 3.958065025252525260e+01
4.898993844696969546e+01 8.894732481060606233e+01 3.959868213383838054e+01
4.899573863636363313e+01 8.894791666666667140e+01 3.962468434343434609e+01
4.901140309343434609e+01 8.896042455808080263e+01 3.962456597222222143e+01
4.905883049242424221e+01 8.899854008838383379e+01 3.963632417929292728e+01
4.902982954545454675e+01 8.901120580808080263e+01 3.963525883838384090e+01
4.906321022727272663e+01 8.902722537878787534e+01 3.964322916666666430e+01
4.908282039141413833e+01 8.905677872474747403e+01 3.965668402777777857e+01
4.907828282828283051e+01 8.909801136363635976e+01 3.963383838383838054e+01
4.907556029040404155e+01 8.912874842171717660e+01 3.965494791666666430e+01
4.912271148989898961e+01 8.913865214646465063e+01 3.966690340909090651e+01
4.914508364898989612e+01 8.918659248737374412e+01 3.969527304292929415e+01
4.917077020202020066e+01 8.923248106060606233e+01 3.970265151515151558e+01
4.915313289141413833e+01 8.925477430555555713e+01 3.970284880050505194e+01
4.918698705808080973e+01 8.929699337121212466e+01 3.971650094696969546e+01
4.916508838383838054e+01 8.932702020202020776e+01 3.971543560606060908e+01
4.921709280303030454e+01 8.936813446969696884e+01 3.971188446969696884e+01
4.921421243686868507e+01 8.940123895202020776e+01 3.970079703282828376e+01
4.924491003787878896e+01 8.947391887626262985e+01 3.971287089646464352e+01
4.923453282828283051e+01 8.950757575757575069e+01 3.972632575757575779e+01
4.926850536616161946e+01 8.954612531565656752e+01 3.971247632575757791e+01
4.914946338383838054e+01 8.941777146464646364e+01 3.949242424242424221e+01
4.904529671717171624e+01 8.927178030303029743e+01 3.933364898989898961e+01
4.898023200757575779e+01 8.918146306818181301e+01 3.934497316919191690e+01
4.904979482323232531e+01 8.916769255050505194e+01 3.941942866161615910e+01
4.902584438131312794e+01 8.913979640151515582e+01 3.945182291666666430e+01
4.901684816919191690e+01 8.910791508838383379e+01 3.943982796717171624e+01
4.897581281565656752e+01 8.907540246212121815e+01 3.943414614898989612e+01
4.897352430555555713e+01 8.903555082070707272e+01 3.945805713383838054e+01
4.898662405303030454e+01 8.902118844696970257e+01 3.949577809343434609e+01
4.900978535353535648e+01 8.902683080808080263e+01 3.952872474747474740e+01
4.900572127525252597e+01 8.898883364898989612e+01 3.952197758838384090e+01
4.898354640151514872e+01 8.897786458333332860e+01 3.953247316919191690e+01
4.900067077020202078e+01 8.897762784090909349e+01 3.955890940656565391e+01
4.903077651515151558e+01 8.896622474747475451e+01 3.957260101010101039e+01
4.902454229797979934e+01 8.898350694444444287e+01 3.959682765151514872e+01
4.902458175505050519e+01 8.898891256313130782e+01 3.958881786616161946e+01
4.901096906565656752e+01 8.900970643939393767e+01 3.961971275252525260e+01
4.908017676767676818e+01 8.902619949494949481e+01 3.962878787878787534e+01
4.901025883838384090e+01 8.906991792929292728e+01 3.961474116161615910e+01
4.906230271464646364e+01 8.908282039141414543e+01 3.963253630050505194e+01
4.907133838383838054e+01 8.909927398989898961e+01 3.964583333333333570e+01
4.911036142676767469e+01 8.913119476010101039e+01 3.964855587121212466e+01
4.910700757575757791e+01 8.915972222222222854e+01 3.966934974747474740e+01
4.912192234848485128e+01 8.920067866161616621e+01 3.968347537878787534e+01
4.914003314393939092e+01 8.922967960858585457e+01 3.967475536616161946e+01
4.918698705808080973e+01 8.930141256313130782e+01 3.970860953282828376e+01
4.918773674242424221e+01 8.934004103535353636e+01 3.971093750000000000e+01
4.925023674242424221e+01 8.939054608585858830e+01 3.973729482323232531e+01
4.923832070707070585e+01 8.942660984848484418e+01 3.972632575757575779e+01
4.924234532828283051e+01 8.943963068181818699e+01 3.971598800505050519e+01
4.920411142676767469e+01 8.948473011363635976e+01 3.970679450757575779e+01
4.925836489898989612e+01 8.951057449494949481e+01 3.970533459595959869e+01
4.926605902777777857e+01 8.957808554292928704e+01 3.970355902777777857e+01
4.929529671717171624e+01 8.961884469696970257e+01 3.970596590909090651e+01
4.928310448232323182e+01 8.964200599747475451e+01 3.969835069444444287e+01
4.921614583333333570e+01 8.950512941919191690e+01 3.948650568181817988e+01
4.906478851010101039e+01 8.932189078282827666e+01 3.929300820707070585e+01
4.908017676767676818e+01 8.930034722222222854e+01 3.934043560606060908e+01
4.908976483585858830e+01 8.930172821969696884e+01 3.940699968434343248e+01
4.909398674242424221e+01 8.929253472222222854e+01 3.944420770202020066e+01
4.904529671717171624e+01 8.924100378787878185e+01 3.943118686868687206e+01
4.905314867424242209e+01 8.918572443181818699e+01 3.945008680555555713e+01
4.901609848484848442e+01 8.916934974747475451e+01 3.948090277777777857e+01
4.905855429292929415e+01 8.917013888888888573e+01 3.951215277777777857e+01
4.906636679292929415e+01 8.916343118686869218e+01 3.952864583333333570e+01
4.909232954545454675e+01 8.915198863636364024e+01 3.953203914141413833e+01
4.907769097222222143e+01 8.911651672979797922e+01 3.956017203282828376e+01
4.909465751262626299e+01 8.913869160353534937e+01 3.957571811868687206e+01
4.909394728535353636e+01 8.912835385101010388e+01 3.959394728535353636e+01
4.908025568181817988e+01 8.914370265151515582e+01 3.958435921717171624e+01
4.912894570707070585e+01 8.916556186868686495e+01 3.961474116161615910e+01
4.911750315656565391e+01 8.918884154040404155e+01 3.962176452020202078e+01
4.914468907828283051e+01 8.922660195707071296e+01 3.965605271464646364e+01
4.916871843434343248e+01 8.924116161616161946e+01 3.966571969696969546e+01
4.914942392676767469e+01 8.928010574494949481e+01 3.968004261363636687e+01
4.919898200757575779e+01 8.930157039141414543e+01 3.968525094696969546e+01
4.917179608585858830e+01 8.932062815656566102e+01 3.967542613636363313e+01
4.921448863636363313e+01 8.935479797979797922e+01 3.969239267676767469e+01
4.920817550505050519e+01 8.937563131313130782e+01 3.968592171717171624e+01
4.923796559343434609e+01 8.942215119949494806e+01 3.971113478535353636e+01
4.923697916666666430e+01 8.945036300505050519e+01 3.972798295454545325e+01
4.924309501262626299e+01 8.950035511363635976e+01 3.972020991161615910e+01
4.925915404040404155e+01 8.953787878787878185e+01 3.970959595959595845e+01
4.926444128787878896e+01 8.958357007575757791e+01 3.972309027777777857e+01
4.930105744949494806e+01 8.961734532828282340e+01 3.973113952020202078e+01
4.932548137626262275e+01 8.965613162878787534e+01 3.972541824494949481e+01
4.931210542929292728e+01 8.969878472222222854e+01 3.972009154040404155e+01
4.935606060606060908e+01 8.975726010101010388e+01 3.973484848484848442e+01
4.933633207070707272e+01 8.977998737373737015e+01 3.973910984848485128e+01
4.930614741161615910e+01 8.975074968434343248e+01 3.964074337121212466e+01
4.921279198232323182e+01 8.959000157828282340e+01 3.942049400252525260e+01
4.912002840909090651e+01 8.949834280303029743e+01 3.935519255050505194e+01
4.910819128787878896e+01 8.947845643939393767e+01 3.939591224747474740e+01
4.919696969696969546e+01 8.950078914141414543e+01 3.946590909090909349e+01
4.918035827020202078e+01 8.949049084595959869e+01 3.947770675505050519e+01
4.916532512626262275e+01 8.946661931818181301e+01 3.949913194444444287e+01
4.916035353535353636e+01 8.943686868686869218e+01 3.949147727272727337e+01
4.917933238636363313e+01 8.944195864898989612e+01 3.952639678030303116e+01
4.914532039141413833e+01 8.944645675505050519e+01 3.953705018939393767e+01
4.912724905303030454e+01 8.944243213383838054e+01 3.952434501262626299e+01
4.911627998737373701e+01 8.942751736111111427e+01 3.952079387626262275e+01
4.917562342171716949e+01 8.941678503787878185e+01 3.954841382575757791e+01
4.918619791666666430e+01 8.944771938131313505e+01 3.958739741161615910e+01
4.925430082070707272e+01 8.945316445707071296e+01 3.961951546717171624e+01
4.923145517676767469e+01 8.947419507575757791e+01 3.963375946969696884e+01
4.922750946969696884e+01 8.949550189393939092e+01 3.963107638888888573e+01
4.920624210858586167e+01 8.953294665404040131e+01 3.962085700757575779e+01
4.925804924242424221e+01 8.955997474747475451e+01 3.962926136363636687e+01
4.924305555555555713e+01 8.957007575757575069e+01 3.965183080808080973e+01
4.929135101010101039e+01 8.960921717171717660e+01 3.966272095959595845e+01
4.929241635101010388e+01 8.962874842171717660e+01 3.967704387626262275e+01
4.930527935606060908e+01 8.966181344696970257e+01 3.966575915404040131e+01
4.929004892676767469e+01 8.969203756313130782e+01 3.968083175505050519e+01
4.930855429292929415e+01 8.973611111111111427e+01 3.968402777777777857e+01
4.933222853535353636e+01 8.977667297979797922e+01 3.971070075757575779e+01
4.934765625000000000e+01 8.983203125000000000e+01 3.971113478535353636e+01
4.936410984848485128e+01 8.986963383838383379e+01 3.970928030303030454e+01
4.939543876262626299e+01 8.990680239898989612e+01 3.970036300505050519e+01
4.939776672979797922e+01 8.995411142676768179e+01 3.971815814393939092e+01
4.944448390151514872e+01 8.997668087121212466e+01 3.970632102272727337e+01
4.939307133838384090e+01 9.000197285353534937e+01 3.970399305555555713e+01
4.946192392676767469e+01 9.004762468434343248e+01 3.968430397727272663e+01
4.939579387626262275e+01 8.996145044191919737e+01 3.956687973484848442e+01
4.926250789141413833e+01 8.980385890151515582e+01 3.937645991161615910e+01
4.922522095959595845e+01 8.975694444444444287e+01 3.936979166666666430e+01
4.926858428030303116e+01 8.974775094696970257e+01 3.941047190656565391e+01
4.925291982323232531e+01 8.976175820707071296e+01 3.946330492424242209e+01
4.927939551767676818e+01 8.975840435606060908e+01 3.948520359848485128e+01
4.927627840909090651e+01 8.976033775252524549e+01 3.948839962121212466e+01
4.931687973484848442e+01 8.976274463383838054e+01 3.950548453282828376e+01
4.927616003787878896e+01 8.975943023989898961e+01 3.952458175505050519e+01
4.927043876262626299e+01 8.974850063131313505e+01 3.949897411616161946e+01
4.927020202020202078e+01 8.974447601010101039e+01 3.949305555555555713e+01
4.927000473484848442e+01 8.974664614898989612e+01 3.950753630050505194e+01
4.927947443181817988e+01 8.975169665404040131e+01 3.953989109848485128e+01
4.933033459595959869e+01 8.976799242424242209e+01 3.957102272727272663e+01
4.933645044191919027e+01 8.982208806818181301e+01 3.960333806818182012e+01
4.935049715909090651e+01 8.982997948232323893e+01 3.962338226010101039e+01
4.930934343434343248e+01 8.983648989898989612e+01 3.962231691919191690e+01
4.935452178030303116e+01 8.987440814393939092e+01 3.962109375000000000e+01
4.933755523989898961e+01 8.987874842171717660e+01 3.962322443181817988e+01
4.938198390151514872e+01 8.991149779040404155e+01 3.964019097222222143e+01
4.935783617424242209e+01 8.993501420454545325e+01 3.964508364898989612e+01
4.940427714646464352e+01 8.997309027777777146e+01 3.964054608585858830e+01
4.938521938131312794e+01 8.998717645202020776e+01 3.964232165404040131e+01
4.941327335858586167e+01 9.002485795454545325e+01 3.965190972222222143e+01
4.944270833333333570e+01 9.007512626262625588e+01 3.966635101010101039e+01
4.943986742424242209e+01 9.010684974747475451e+01 3.965924873737373701e+01
4.944882417929292728e+01 9.015905145202020776e+01 3.966331281565656752e+01
4.945533459595959869e+01 9.019554924242424931e+01 3.965956439393939092e+01
4.947679924242424221e+01 9.021433080808080263e+01 3.966524621212121104e+01
4.951803188131312794e+01 9.026661142676768179e+01 3.967570233585858830e+01
4.950714172979797922e+01 9.029959753787878185e+01 3.966733743686868507e+01
4.950800978535353636e+01 9.027063604797979224e+01 3.958329387626262275e+01
4.931652462121212466e+01 9.006352588383838054e+01 3.934998421717171624e+01
4.929719065656565391e+01 8.996764520202020776e+01 3.928614267676767469e+01
4.927533143939393767e+01 8.995651830808080263e+01 3.932504734848485128e+01
4.932181186868687206e+01 8.996764520202020776e+01 3.939172979797979934e+01
4.933968592171716949e+01 8.996452809343433898e+01 3.942349273989898961e+01
4.936000631313131493e+01 8.993718434343433898e+01 3.943371212121212466e+01
4.930606849747474740e+01 8.989618844696970257e+01 3.944416824494949481e+01
4.930598958333333570e+01 8.991852114898989612e+01 3.945198074494949481e+01
4.930839646464646364e+01 8.987342171717172334e+01 3.947821969696969546e+01
4.933143939393939092e+01 8.985037878787878185e+01 3.949479166666666430e+01
4.929107481060606233e+01 8.984442077020202078e+01 3.949640940656565391e+01
4.932844065656565391e+01 8.983759469696970257e+01 3.950615530303030454e+01
4.930381944444444287e+01 8.983317550505050519e+01 3.953803661616161946e+01
4.935357481060606233e+01 8.987377683080808310e+01 3.956380208333333570e+01
4.938549558080808310e+01 8.989622790404040131e+01 3.959982638888888573e+01
4.938802083333333570e+01 8.990932765151515582e+01 3.960061553030303116e+01
4.939019097222222143e+01 8.993864425505050519e+01 3.961635890151514872e+01
4.937969539141413833e+01 8.995340119949494806e+01 3.960901988636363313e+01
4.936714804292929415e+01 8.995237531565656752e+01 3.961304450757575779e+01
4.940183080808080973e+01 8.997711489898989612e+01 3.962863005050505194e+01
4.941062973484848442e+01 8.997533933080808310e+01 3.963064236111111427e+01
4.939745107323232531e+01 9.000366950757575069e+01 3.962298768939393767e+01
4.943229166666666430e+01 9.005792297979797922e+01 3.965924873737373701e+01
4.944491792929292728e+01 9.008285984848484418e+01 3.965309343434343248e+01
4.944716698232323182e+01 9.012519728535353636e+01 3.966607481060606233e+01
4.950268308080808310e+01 9.016193181818181301e+01 3.966461489898989612e+01
4.950560290404040131e+01 9.017447916666667140e+01 3.966437815656565391e+01
4.952375315656565391e+01 9.020809659090909349e+01 3.966658775252525260e+01
4.951641414141413833e+01 9.024195075757575069e+01 3.966714015151514872e+01
4.954592803030303116e+01 9.030129419191919737e+01 3.968008207070707272e+01
4.954344223484848442e+01 9.034489425505050519e+01 3.969416824494949481e+01
4.953669507575757791e+01 9.036513573232323893e+01 3.968252840909090651e+01
4.951436237373737725e+01 9.033791035353534937e+01 3.959958964646464352e+01
4.936020359848485128e+01 9.018012152777777146e+01 3.936478061868687206e+01
4.924001736111111427e+01 9.001069286616161946e+01 3.927000473484848442e+01
4.930760732323232531e+01 8.999368686868686495e+01 3.928188131313131493e+01
4.931238162878787534e+01 8.997762784090909349e+01 3.937030460858586167e+01
4.932248263888888573e+01 8.997731218434343248e+01 3.940991950757575779e+01
4.933431976010101039e+01 8.995016571969696884e+01 3.940976167929292728e+01
4.928377525252525260e+01 8.985732323232323893e+01 3.939109848484848442e+01
4.931506470959595845e+01 8.983952809343433898e+01 3.943675031565656752e+01
4.928251262626262275e+01 8.984801136363635976e+01 3.948895202020202078e+01
4.929774305555555713e+01 8.983451704545454675e+01 3.952012310606060908e+01
4.931802398989898961e+01 8.982891414141414543e+01 3.951341540404040131e+01
4.932674400252525260e+01 8.981443339646465063e+01 3.954596748737373701e+01
4.933368844696969546e+01 8.978381470959595845e+01 3.955401672979797922e+01
4.932315340909090651e+01 8.979774305555555713e+01 3.957994002525252597e+01
4.933613478535353636e+01 8.982271938131313505e+01 3.961848958333333570e+01
4.934868213383838054e+01 8.984047506313130782e+01 3.963971748737373701e+01
4.936166351010101039e+01 8.985992739898989612e+01 3.967069128787878896e+01
4.937022569444444287e+01 8.988884943181818699e+01 3.967862215909090651e+01
4.937496054292929415e+01 8.990336963383838054e+01 3.968225220959595845e+01
4.937440814393939092e+01 8.991938920454545325e+01 3.968359375000000000e+01
4.943477746212121104e+01 8.995213857323231821e+01 3.970434816919191690e+01
4.941556186868687206e+01 8.997301136363635976e+01 3.971780303030303116e+01
4.944302398989898961e+01 9.001341540404040131e+01 3.972316919191919027e+01
4.942732007575757791e+01 9.003290719696970257e+01 3.971393623737373701e+01
4.947802241161615910e+01 9.008518781565656752e+01 3.971744791666666430e+01
4.948508522727272663e+01 9.010345643939393767e+01 3.974266098484848442e+01
4.950864109848485128e+01 9.014263731060606233e+01 3.973354640151514872e+01
4.950710227272727337e+01 9.018876262626262985e+01 3.975410353535353636e+01
4.953555082070707272e+01 9.022920612373737015e+01 3.973978061868687206e+01
4.951199494949494806e+01 9.026136363636364024e+01 3.973453282828283051e+01
4.955500315656565391e+01 9.029174558080808310e+01 3.972956123737373701e+01
4.957402146464646364e+01 9.033917297979797922e+01 3.974968434343434609e+01
4.958226799242424221e+01 9.038829703282827666e+01 3.976250789141413833e+01
4.956632733585858830e+01 9.040281723484848442e+01 3.972068339646464352e+01
4.945943813131312794e+01 9.025726010101010388e+01 3.953140782828283051e+01
4.928302556818182012e+01 9.007611268939393767e+01 3.931774779040404155e+01
4.928681344696969546e+01 9.000587910353534937e+01 3.931080334595959869e+01
4.929210069444444287e+01 8.999206912878787534e+01 3.938032670454545325e+01
4.933775252525252597e+01 9.001515151515151558e+01 3.943481691919191690e+01
4.931739267676767469e+01 8.998989898989898961e+01 3.945138888888888573e+01
4.930405618686868507e+01 8.996204229797979224e+01 3.945146780303030454e+01
4.930717329545454675e+01 8.993469854797979224e+01 3.946531723484848442e+01
4.934619633838384090e+01 8.993079229797979224e+01 3.951223169191919027e+01
4.930756786616161946e+01 8.991268150252524549e+01 3.951432291666666430e+01
4.934351325757575779e+01 8.990396148989898961e+01 3.953590593434343248e+01
4.934307922979797922e+01 8.990415877525252597e+01 3.953752367424242209e+01
4.934422348484848442e+01 8.988115530303029743e+01 3.956518308080808310e+01
4.933830492424242209e+01 8.990538194444444287e+01 3.958783143939393767e+01
4.939019097222222143e+01 8.992002051767676107e+01 3.962677556818182012e+01
4.939658301767676818e+01 8.991141887626262985e+01 3.964705650252525260e+01
4.941023516414141170e+01 8.995458491161616621e+01 3.967664930555555713e+01
4.941650883838384090e+01 8.998737373737374412e+01 3.969365530303030454e+01
4.943497474747474740e+01 9.000426136363635976e+01 3.969113005050505194e+01
4.942570233585858830e+01 9.003728693181818699e+01 3.969416824494949481e+01
4.942392676767676818e+01 9.006044823232323893e+01 3.969207702020202078e+01
4.943181818181817988e+01 9.008128156565656752e+01 3.969113005050505194e+01
4.946847380050505194e+01 9.011746369949494806e+01 3.970458491161615910e+01
4.946160827020202078e+01 9.014169034090909349e+01 3.970182291666666430e+01
4.947241950757575779e+01 9.017349273989898961e+01 3.972178819444444287e+01
4.949932922979797922e+01 9.019708806818181301e+01 3.972218276515151558e+01
4.953752367424242209e+01 9.023354640151515582e+01 3.972234059343434609e+01
4.951432291666666430e+01 9.029273200757575069e+01 3.973654513888888573e+01
4.952797506313131493e+01 9.031916824494949481e+01 3.973583491161615910e+01
4.957599431818182012e+01 9.038154987373737015e+01 3.974708017676767469e+01
4.956999684343434609e+01 9.040222537878787534e+01 3.975071022727272663e+01
4.958589804292929415e+01 9.042491319444444287e+01 3.974104324494949481e+01
4.959540719696969546e+01 9.045857007575757791e+01 3.973161300505050519e+01
4.949455492424242209e+01 9.035661300505050519e+01 3.956652462121212466e+01
4.933080808080808310e+01 9.017440025252524549e+01 3.925978535353535648e+01
4.928772095959595845e+01 9.010321969696970257e+01 3.927825126262626299e+01
4.932252209595959869e+01 9.008309659090909349e+01 3.934351325757575779e+01
4.934094854797979934e+01 9.006395991161616621e+01 3.941528566919191690e+01
4.937286931818182012e+01 9.006352588383838054e+01 3.945714962121212466e+01
4.933530618686868507e+01 9.000560290404040131e+01 3.946930239898989612e+01
4.933771306818182012e+01 8.997628630050505194e+01 3.948638731060606233e+01
4.936339962121212466e+01 8.994547032828282340e+01 3.950954861111111427e+01
4.935850694444444287e+01 8.993805239898989612e+01 3.953290719696969546e+01
4.931214488636363313e+01 8.992751736111111427e+01 3.955062342171716949e+01
4.934161931818182012e+01 8.990411931818181301e+01 3.953795770202020066e+01
4.932974273989898961e+01 8.988293087121212466e+01 3.957011521464646364e+01
4.936339962121212466e+01 8.989749053030303116e+01 3.960329861111111427e+01
4.935428503787878896e+01 8.991583806818181301e+01 3.962701231060606233e+01
4.935732323232323182e+01 8.996054292929292728e+01 3.965325126262626299e+01
4.937653882575757791e+01 8.995497948232323893e+01 3.967230902777777857e+01
4.941039299242424221e+01 8.996263415404040131e+01 3.969195864898989612e+01
4.941137941919191690e+01 8.999139835858585457e+01 3.970730744949494806e+01
4.940514520202020066e+01 9.000741792929292728e+01 3.971212121212121104e+01
4.944574652777777857e+01 9.003823390151515582e+01 3.971279198232323182e+01
4.946417297979797922e+01 9.005381944444444287e+01 3.972427398989898961e+01
4.946460700757575779e+01 9.007634943181818699e+01 3.972597064393939092e+01
4.947186710858586167e+01 9.012117266414141170e+01 3.973291508838384090e+01
4.945494002525252597e+01 9.015475063131313505e+01 3.975386679292929415e+01
4.948619002525252597e+01 9.017984532828282340e+01 3.976586174242424221e+01
4.946160827020202078e+01 9.021760574494949481e+01 3.976306029040404155e+01
4.948871527777777857e+01 9.025939078282827666e+01 3.975844381313131493e+01
4.948465119949494806e+01 9.029288983585858830e+01 3.975911458333333570e+01
4.954060132575757791e+01 9.032563920454545325e+01 3.978065814393939092e+01
4.958108428030303116e+01 9.037306660353534937e+01 3.977742266414141170e+01
4.956881313131312794e+01 9.041934974747475451e+01 3.976704545454545325e+01
4.948547979797979934e+01 9.035621843434343248e+01 3.960369318181817988e+01
4.938289141414141170e+01 9.019333964646465063e+01 3.942455808080808310e+01
4.931273674242424221e+01 9.005847537878787534e+01 3.938107638888888573e+01
4.935503472222222143e+01 9.003606376262625588e+01 3.942495265151514872e+01
4.934055397727272663e+01 9.002221433080808310e+01 3.949001736111111427e+01
4.941141887626262275e+01 9.003168402777777146e+01 3.955630523989898961e+01
4.937559185606060908e+01 9.000217013888888573e+01 3.957335069444444287e+01
4.936339962121212466e+01 8.998035037878787534e+01 3.961513573232323182e+01
4.938328598484848442e+01 8.997593118686869218e+01 3.962586805555555713e+01
4.935610006313131493e+01 8.996310763888888573e+01 3.963151041666666430e+01
4.939559659090909349e+01 8.994184027777777146e+01 3.962618371212121104e+01
4.934059343434343248e+01 8.989851641414141170e+01 3.961979166666666430e+01
4.933057133838384090e+01 8.987855113636364024e+01 3.964875315656565391e+01
4.934990530303030454e+01 8.987594696969696884e+01 3.968892045454545325e+01
4.936837121212121104e+01 8.990530303030303116e+01 3.972458964646464352e+01
4.937077809343434609e+01 8.992806976010101039e+01 3.975556344696969546e+01
4.936422821969696884e+01 8.994535195707071296e+01 3.978720801767676818e+01
4.940893308080808310e+01 8.998484848484848442e+01 3.978961489898989612e+01
4.944353693181817988e+01 8.999546243686869218e+01 3.980969854797979934e+01
4.943402777777777857e+01 9.000236742424242209e+01 3.982102272727272663e+01
4.942234848484848442e+01 9.001957070707071296e+01 3.981013257575757791e+01
4.945115214646464352e+01 9.003969381313130782e+01 3.979979482323232531e+01
4.948374368686868507e+01 9.007133838383838054e+01 3.980918560606060908e+01
4.950181502525252597e+01 9.010440340909090651e+01 3.982851957070707272e+01
4.947056502525252597e+01 9.012302714646465063e+01 3.983136047979797922e+01
4.954123263888888573e+01 9.014902935606060908e+01 3.984568339646464352e+01
4.954288983585858830e+01 9.018098958333332860e+01 3.983424084595959869e+01
4.953535353535353636e+01 9.019507575757575069e+01 3.984864267676767469e+01
4.954817708333333570e+01 9.023615056818181301e+01 3.986367582070707272e+01
4.957118055555555713e+01 9.028440656565656752e+01 3.985590277777777857e+01
4.954363952020202078e+01 9.027327967171717660e+01 3.978180239898989612e+01
4.940025252525252597e+01 9.008791035353534937e+01 3.949116161616161946e+01
4.929431029040404155e+01 8.993872316919191690e+01 3.947107796717171624e+01
4.929127209595959869e+01 8.984098800505050519e+01 3.950102588383838054e+01
4.931703756313131493e+01 8.983471433080808310e+01 3.962085700757575779e+01
4.933680555555555713e+01 8.983980429292928704e+01 3.967408459595959869e+01
4.936521464646464352e+01 8.982986111111111427e+01 3.971669823232323182e+01
4.936785827020202078e+01 8.982366635101010388e+01 3.971366003787878896e+01
4.934465751262626299e+01 8.981798453282827666e+01 3.975106534090909349e+01
4.938454861111111427e+01 8.978890467171717660e+01 3.975907512626262275e+01
4.937156723484848442e+01 8.974041193181818699e+01 3.975856218434343248e+01
4.929651988636363313e+01 8.969992897727273373e+01 3.975595801767676818e+01
4.929683554292929415e+01 8.967151988636364024e+01 3.980093907828283051e+01
4.932658617424242209e+01 8.967885890151515582e+01 3.984126420454545325e+01
4.933566130050505194e+01 8.967941130050505194e+01 3.987133049242424221e+01
4.939603061868687206e+01 8.971547506313130782e+01 3.989681976010101039e+01
4.939614898989898961e+01 8.972885101010101039e+01 3.992597853535353636e+01
4.937642045454545325e+01 8.974273989898989612e+01 3.993576388888888573e+01
4.939792455808080973e+01 8.976787405303029743e+01 3.995316445707070585e+01
4.942211174242424221e+01 8.978180239898989612e+01 3.993584280303030454e+01
4.938147095959595845e+01 8.977635732323231821e+01 3.995691287878787534e+01
4.941003787878787534e+01 8.979371843434343248e+01 3.993860479797979934e+01
4.941863952020202078e+01 8.982630997474747403e+01 3.995178345959595845e+01
4.945892518939393767e+01 8.986217645202020776e+01 3.995119160353535648e+01
4.938304924242424221e+01 8.986426767676768179e+01 3.995265151515151558e+01
4.942175662878787534e+01 8.989539930555555713e+01 3.996358112373737725e+01
4.947900883838384090e+01 8.994870580808080263e+01 3.997064393939393767e+01
4.947549715909090651e+01 8.998386205808080263e+01 3.998654513888888573e+01
4.950398516414141170e+01 9.004612531565656752e+01 4.000335385101010388e+01
4.952099116161615910e+01 9.005839646464646364e+01 3.997885101010101039e+01
4.935716540404040131e+01 8.986647727272726627e+01 3.975363005050505194e+01
4.923693970959595845e+01 8.962503945707071296e+01 3.959126420454545325e+01
4.910231218434343248e+01 8.945947758838383379e+01 3.961620107323232531e+01
4.916279987373737725e+01 8.941816603535353636e+01 3.972877209595959869e+01
4.919645675505050519e+01 8.938111584595959869e+01 3.978783933080808310e+01
4.922048611111111427e+01 8.932054924242424931e+01 3.984311868686868507e+01
4.919424715909090651e+01 8.926163983585858830e+01 3.986675347222222143e+01
4.916575915404040131e+01 8.917917455808080263e+01 3.989618844696969546e+01
4.915119949494949481e+01 8.913557449494949481e+01 3.994034090909090651e+01
4.917578125000000000e+01 8.911533301767676107e+01 3.997423453282828376e+01
4.913596906565656752e+01 8.906731376262625588e+01 3.999171401515151558e+01
4.914997632575757791e+01 8.900998263888888573e+01 4.000098642676767469e+01
4.915593434343434609e+01 8.894870580808080263e+01 4.002651515151514872e+01
4.916642992424242209e+01 8.895430871212121815e+01 4.009098800505050519e+01
4.912953756313131493e+01 8.892167771464646364e+01 4.011186079545454675e+01
4.915719696969696884e+01 8.893560606060606233e+01 4.013699494949494806e+01
4.917657039141413833e+01 8.894819286616161946e+01 4.017657039141413833e+01
4.917945075757575779e+01 8.895675505050505194e+01 4.017881944444444287e+01
4.915518465909090651e+01 8.897336647727273373e+01 4.019448390151514872e+01
4.914946338383838054e+01 8.896164772727273373e+01 4.020217803030303116e+01
4.920419034090909349e+01 8.898496685606060908e+01 4.022644412878787534e+01
4.921176609848485128e+01 8.900185448232323893e+01 4.022849589646464352e+01
4.917613636363636687e+01 8.901499368686869218e+01 4.023137626262626299e+01
4.920119160353535648e+01 8.901448074494949481e+01 4.023070549242424221e+01
4.922470801767676818e+01 8.903657670454545325e+01 4.024206912878787534e+01
4.922092013888888573e+01 8.906814236111111427e+01 4.025974589646464352e+01
4.924447601010101039e+01 8.908712121212121815e+01 4.025268308080808310e+01
4.925895675505050519e+01 8.912417140151515582e+01 4.025564236111111427e+01
4.927446338383838054e+01 8.915656565656566102e+01 4.026246843434343248e+01
4.928270991161615910e+01 8.917617582070707272e+01 4.026645359848485128e+01
4.926878156565656752e+01 8.916603535353534937e+01 4.021243686868687206e+01
4.904170612373737725e+01 8.892286142676768179e+01 3.998315183080808310e+01
4.889922664141413833e+01 8.865948547979797922e+01 3.993600063131312794e+01
4.887282986111111427e+01 8.845300662878787534e+01 3.997652304292929415e+01
4.890526357323232531e+01 8.842972695707071296e+01 4.005425347222222143e+01
4.894736426767676818e+01 8.838423295454545325e+01 4.013139204545454675e+01
4.889946338383838054e+01 8.830350378787878185e+01 4.018071338383838054e+01
4.889382102272727337e+01 8.819748263888888573e+01 4.020174400252525260e+01
4.885692866161615910e+01 8.813596906565656752e+01 4.025828598484848442e+01
4.888959911616161946e+01 8.809777462121212466e+01 4.030121527777777857e+01
4.885132575757575779e+01 8.803472222222222854e+01 4.031597222222222143e+01
4.885850694444444287e+01 8.798019255050505194e+01 4.033072916666666430e+01
4.875789141414141170e+01 8.793702651515151558e+01 4.036016414141413833e+01
4.878551136363636687e+01 8.786537247474747403e+01 4.038589015151514872e+01
4.880153093434343248e+01 8.785771780303029743e+01 4.041374684343434609e+01
4.884051452020202078e+01 8.787081755050505194e+01 4.045257260101010388e+01
4.884276357323232531e+01 8.788474589646465063e+01 4.047060448232323182e+01
4.887073863636363313e+01 8.790767045454545325e+01 4.048768939393939092e+01
4.887578914141413833e+01 8.790909090909090651e+01 4.050505050505050519e+01
4.885996685606060908e+01 8.792357165404040131e+01 4.051684816919191690e+01
4.886174242424242209e+01 8.792645202020202078e+01 4.051199494949494806e+01
4.886821338383838054e+01 8.793623737373737015e+01 4.052067550505050519e+01
4.888383838383838054e+01 8.795012626262625588e+01 4.053014520202020066e+01
4.889149305555555713e+01 8.796156881313130782e+01 4.053795770202020066e+01
4.887192234848485128e+01 8.798603219696970257e+01 4.053827335858586167e+01
4.893690814393939092e+01 8.801029829545454675e+01 4.055291193181817988e+01
4.895584753787878896e+01 8.804028566919191690e+01 4.055875157828283051e+01
4.896575126262626299e+01 8.806723484848484418e+01 4.056723484848485128e+01
4.892191445707070585e+01 8.812693339646465063e+01 4.056443339646464352e+01
4.897715435606060908e+01 8.814208491161616621e+01 4.055701546717171624e+01
4.899846117424242209e+01 8.817491319444444287e+01 4.056427556818182012e+01
4.902840909090909349e+01 8.822648358585858830e+01 4.056171085858586167e+01
4.893371212121212466e+01 8.818813131313130782e+01 4.049384469696969546e+01
4.875919349747474740e+01 8.794243213383838054e+01 4.027166193181817988e+01
4.861679292929292728e+01 8.765041035353534937e+01 4.015845959595959869e+01
4.866185290404040131e+01 8.754300820707071296e+01 4.026696654040404155e+01
4.863186553030303116e+01 8.745904356060606233e+01 4.037113320707070585e+01
4.864756944444444287e+01 8.740072601010101039e+01 4.043418560606060908e+01
4.858869949494949481e+01 8.733238636363635976e+01 4.047159090909090651e+01
4.860365372474747403e+01 8.724806660353534937e+01 4.048291508838384090e+01
4.854008838383838054e+01 8.720328282828282340e+01 4.051467803030303116e+01
4.856897095959595845e+01 8.714172979797979224e+01 4.054356060606060908e+01
4.854983428030303116e+01 8.710365372474747403e+01 4.057997948232323182e+01
4.856182922979797922e+01 8.704083806818181301e+01 4.059039614898989612e+01
4.852016256313131493e+01 8.696855271464646364e+01 4.059955018939393767e+01
4.850907512626262275e+01 8.696062184343433898e+01 4.064449179292929415e+01
4.854584911616161946e+01 8.699771148989898961e+01 4.068821022727272663e+01
4.854127209595959869e+01 8.700402462121212466e+01 4.069184027777777857e+01
4.853440656565656752e+01 8.700852272727273373e+01 4.070675505050505194e+01
4.856348642676767469e+01 8.703002683080808310e+01 4.072336647727272663e+01
4.857662563131312794e+01 8.706920770202020776e+01 4.072309027777777857e+01
4.860965119949494806e+01 8.707761205808080263e+01 4.073859690656565391e+01
4.856897095959595845e+01 8.710495580808080263e+01 4.074526515151514872e+01
4.860444286616161946e+01 8.713458806818181301e+01 4.074491003787878896e+01
4.861422821969696884e+01 8.715510574494949481e+01 4.074932922979797922e+01
4.865550031565656752e+01 8.717522885101010388e+01 4.076313920454545325e+01
4.866453598484848442e+01 8.721788194444444287e+01 4.077359532828283051e+01
4.869570707070707272e+01 8.726909722222222854e+01 4.077998737373737725e+01
4.867088857323232531e+01 8.730362215909090651e+01 4.078768150252525260e+01
4.874585700757575779e+01 8.733787089646465063e+01 4.079951862373737725e+01
4.871263415404040131e+01 8.737425031565656752e+01 4.079139046717171624e+01
4.878069760101010388e+01 8.742432133838383379e+01 4.078937815656565391e+01
4.872604955808080973e+01 8.747320864898989612e+01 4.078997001262626299e+01
4.879995265151514872e+01 8.753779987373737015e+01 4.079427083333333570e+01
4.879052241161615910e+01 8.756104008838383379e+01 4.076306029040404155e+01
4.861355744949494806e+01 8.742053345959595845e+01 4.052249053030303116e+01
4.847024936868687206e+01 8.717937184343433898e+01 4.044988952020202078e+01
4.846930239898989612e+01 8.699202967171717660e+01 4.047230113636363313e+01
4.843517203282828376e+01 8.691923137626262985e+01 4.055354324494949481e+01
4.849715909090909349e+01 8.688636363636364024e+01 4.061821338383838054e+01
4.849802714646464352e+01 8.686466224747475451e+01 4.065885416666666430e+01
4.849838226010101039e+01 8.681088226010101039e+01 4.068193655303030454e+01
4.847328756313131493e+01 8.680188604797979224e+01 4.071334438131312794e+01
4.849479166666666430e+01 8.678282828282827666e+01 4.074652777777777857e+01
4.847837752525252597e+01 8.676688762626262985e+01 4.075000000000000000e+01
4.843986742424242209e+01 8.669523358585858830e+01 4.071890782828283051e+01
4.840471117424242209e+01 8.666149779040404155e+01 4.072478693181817988e+01
4.841733743686868507e+01 8.664587279040404155e+01 4.077071496212121104e+01
4.843592171717171624e+01 8.666777146464646364e+01 4.081297348484848442e+01
4.843146306818182012e+01 8.667262468434343248e+01 4.083881786616161946e+01
4.849337121212121104e+01 8.671022727272726627e+01 4.085558712121212466e+01
4.848962279040404155e+01 8.675619476010101039e+01 4.088324652777777857e+01
4.851751893939393767e+01 8.676972853535353636e+01 4.086963383838384090e+01
4.852896148989898961e+01 8.677722537878787534e+01 4.087223800505050519e+01
4.851763731060606233e+01 8.680961963383838054e+01 4.089074337121212466e+01
4.851980744949494806e+01 8.682473169191919737e+01 4.089228219696969546e+01
4.854462594696969546e+01 8.685538983585858830e+01 4.089421559343434609e+01
4.855894886363636687e+01 8.688186553030303116e+01 4.090159406565656752e+01
4.858869949494949481e+01 8.693450126262625588e+01 4.090498737373737725e+01
4.862594696969696884e+01 8.697601010101010388e+01 4.092897727272727337e+01
4.860633680555555713e+01 8.703405145202020776e+01 4.090384311868687206e+01
4.862874842171716949e+01 8.707571811868686495e+01 4.091867897727272663e+01
4.862204071969696884e+01 8.711336016414141170e+01 4.092759627525252597e+01
4.867676767676767469e+01 8.717866161616161946e+01 4.094791666666666430e+01
4.868327809343434609e+01 8.723283617424242209e+01 4.095805713383838054e+01
4.870537405303030454e+01 8.724199021464646364e+01 4.092317708333333570e+01
4.848816287878787534e+01 8.707165404040404155e+01 4.063699494949494806e+01
4.841587752525252597e+01 8.686647727272726627e+01 4.059643308080808310e+01
4.836320233585858830e+01 8.672604955808080263e+01 4.064019097222222143e+01
4.843797348484848442e+01 8.669696969696970257e+01 4.074210858585858830e+01
4.844669349747474740e+01 8.670174400252524549e+01 4.078823390151514872e+01
4.842522885101010388e+01 8.668943339646465063e+01 4.081758996212121104e+01
4.842262468434343248e+01 8.668414614898989612e+01 4.084118529040404155e+01
4.845415088383838054e+01 8.670367739898989612e+01 4.087255366161615910e+01
4.846346275252525260e+01 8.669247159090909349e+01 4.089607007575757791e+01
4.843718434343434609e+01 8.664393939393939092e+01 4.086505681818182012e+01
4.843446180555555713e+01 8.661122948232323893e+01 4.086627998737373701e+01
4.845884627525252597e+01 8.659457859848484418e+01 4.089603061868687206e+01
4.844053819444444287e+01 8.660341698232323893e+01 4.092207228535353636e+01
4.851049558080808310e+01 8.661545138888888573e+01 4.093947285353535648e+01
4.843793402777777857e+01 8.664642518939393767e+01 4.096634311868687206e+01
4.849834280303030454e+01 8.666516729797979224e+01 4.097940340909090651e+01
4.849317392676767469e+01 8.673054766414141170e+01 4.100437973484848442e+01
4.853693181818182012e+01 8.677793560606060908e+01 4.102525252525252597e+01
4.853941761363636687e+01 8.679588857323231821e+01 4.104336332070707272e+01
4.859647253787878896e+01 8.681301294191919737e+01 4.103539299242424221e+01
4.857883522727272663e+01 8.683609532828282340e+01 4.102138573232323182e+01
4.859426294191919027e+01 8.689019097222222854e+01 4.103918087121212466e+01
4.864378156565656752e+01 8.695296717171717660e+01 4.105523989898989612e+01
4.865767045454545325e+01 8.698058712121212466e+01 4.104940025252525260e+01
4.864571496212121104e+01 8.701377051767676107e+01 4.105906723484848442e+01
4.869890309343434609e+01 8.706727430555555713e+01 4.106459122474747403e+01
4.869097222222222143e+01 8.712121212121212466e+01 4.106297348484848442e+01
4.874234532828283051e+01 8.717826704545454675e+01 4.109840593434343248e+01
4.871298926767676818e+01 8.721504103535353636e+01 4.106242108585858830e+01
4.854569128787878896e+01 8.706526199494949481e+01 4.088391729797979934e+01
4.843809185606060908e+01 8.681261837121212466e+01 4.073086332070707272e+01
4.840597380050505194e+01 8.662282986111111427e+01 4.073772885101010388e+01
4.838817866161615910e+01 8.658246527777777146e+01 4.080421401515151558e+01
4.841946811868687206e+01 8.654841382575757791e+01 4.089784564393939092e+01
4.841149779040404155e+01 8.652544981060606233e+01 4.094227430555555713e+01
4.838139204545454675e+01 8.646882891414141170e+01 4.094767992424242209e+01
4.837918244949494806e+01 8.645572916666667140e+01 4.098334911616161946e+01
4.841698232323232531e+01 8.644917929292928704e+01 4.101246843434343248e+01
4.838920454545454675e+01 8.644302398989898961e+01 4.102872474747474740e+01
4.839200599747474740e+01 8.637590751262625588e+01 4.102726483585858830e+01
4.838478535353535648e+01 8.634469696969696884e+01 4.103756313131312794e+01
4.837811710858586167e+01 8.631656407828282340e+01 4.106135574494949481e+01
4.837756470959595845e+01 8.634663036616161946e+01 4.109868213383838054e+01
4.844783775252525260e+01 8.634809027777777146e+01 4.112665719696969546e+01
4.843114741161615910e+01 8.636927872474747403e+01 4.114737215909090651e+01
4.848496685606060908e+01 8.641189236111111427e+01 4.116047190656565391e+01
4.847825915404040131e+01 8.643927556818181301e+01 4.118012152777777857e+01
4.848930713383838054e+01 8.648772885101010388e+01 4.120411142676767469e+01
4.848705808080808310e+01 8.651815025252524549e+01 4.121480429292929415e+01
4.853113162878787534e+01 8.655228061868686495e+01 4.122668087121212466e+01
4.852497632575757791e+01 8.659947127525252597e+01 4.122825915404040131e+01
4.855575284090909349e+01 8.661020359848484418e+01 4.122115688131312794e+01
4.853716856060606233e+01 8.665333017676768179e+01 4.123177083333333570e+01
4.858392518939393767e+01 8.669314236111111427e+01 4.122470801767676818e+01
4.858984375000000000e+01 8.673772885101010388e+01 4.122636521464646364e+01
4.861126893939393767e+01 8.678961489898989612e+01 4.124936868686868507e+01
4.861485953282828376e+01 8.685333806818181301e+01 4.125674715909090651e+01
4.865088383838384090e+01 8.691335227272726627e+01 4.127162247474747403e+01
4.865672348484848442e+01 8.695249368686869218e+01 4.126862373737373701e+01
4.864670138888888573e+01 8.691927083333332860e+01 4.117116477272727337e+01
4.844235321969696884e+01 8.669219539141414543e+01 4.096634311868687206e+01
4.832824337121212466e+01 8.642025726010101039e+01 4.089279513888888573e+01
4.827280618686868507e+01 8.624234532828282340e+01 4.096614583333333570e+01
4.832587594696969546e+01 8.619550978535353636e+01 4.103831281565656752e+01
4.829624368686868507e+01 8.616019570707071296e+01 4.109880050505050519e+01
4.835345643939393767e+01 8.612286931818181301e+01 4.113360164141413833e+01
4.829083806818182012e+01 8.605488478535353636e+01 4.116867897727272663e+01
4.836276830808080973e+01 8.599818497474747403e+01 4.122735164141413833e+01
4.829229797979797922e+01 8.596275252525252597e+01 4.124021464646464352e+01
4.833211016414141170e+01 8.592759627525252597e+01 4.125351167929292728e+01
4.831340751262626299e+01 8.587843276515151558e+01 4.127489741161615910e+01
4.831309185606060908e+01 8.584718276515151558e+01 4.128783933080808310e+01
4.829016729797979934e+01 8.584461805555555713e+01 4.130500315656565391e+01
4.829636205808080973e+01 8.586738478535353636e+01 4.134544665404040131e+01
4.829896622474747403e+01 8.586525410353534937e+01 4.138151041666666430e+01
4.834098800505050519e+01 8.589054608585858830e+01 4.140333017676767469e+01
4.838360164141413833e+01 8.593426452020202078e+01 4.142653093434343248e+01
4.839950284090909349e+01 8.596878945707071296e+01 4.144164299242424221e+01
4.837622316919191690e+01 8.600422190656566102e+01 4.145829387626262275e+01
4.841950757575757791e+01 8.604876893939393767e+01 4.147380050505050519e+01
4.841303661616161946e+01 8.608333333333332860e+01 4.146827651515151558e+01
4.845355902777777857e+01 8.613679766414141170e+01 4.146634311868687206e+01
4.840131786616161946e+01 8.616599589646465063e+01 4.146476483585858830e+01
4.847695707070707272e+01 8.621006944444444287e+01 4.147474747474747403e+01
4.846239741161615910e+01 8.625611584595959869e+01 4.147123579545454675e+01
4.852446338383838054e+01 8.632796717171717660e+01 4.147885101010101039e+01
4.853349905303030454e+01 8.637235637626262985e+01 4.148504577020202078e+01
4.859059343434343248e+01 8.643686868686869218e+01 4.150505050505050519e+01
4.859260574494949481e+01 8.651669034090909349e+01 4.152142518939393767e+01
4.862042297979797922e+01 8.656833964646465063e+01 4.152477904040404155e+01
4.863162878787878896e+01 8.661253156565656752e+01 4.150394570707070585e+01
4.850994318181817988e+01 8.646938131313130782e+01 4.130145202020202078e+01
4.834343434343434609e+01 8.617881944444444287e+01 4.116098484848485128e+01
4.828369633838384090e+01 8.597514204545454675e+01 4.120699179292929415e+01
4.826775568181817988e+01 8.593126578282827666e+01 4.125812815656565391e+01
4.829265309343434609e+01 8.587709122474747403e+01 4.135973011363636687e+01
4.830093907828283051e+01 8.583124210858585457e+01 4.140999842171716949e+01
4.829024621212121104e+01 8.577035984848484418e+01 4.142976641414141170e+01
4.827387152777777857e+01 8.573157354797979224e+01 4.145300662878787534e+01
4.832591540404040131e+01 8.572932449494949481e+01 4.150473484848485128e+01
4.830989583333333570e+01 8.570667613636364024e+01 4.152170138888888573e+01
4.832390309343434609e+01 8.566986268939393767e+01 4.153555082070707272e+01
4.827647569444444287e+01 8.563600852272726627e+01 4.154588857323232531e+01
4.832050978535353636e+01 8.561959438131313505e+01 4.157177241161615910e+01
4.830287247474747403e+01 8.562720959595959869e+01 4.160290404040404155e+01
4.832938762626262275e+01 8.566145833333332860e+01 4.162357954545454675e+01
4.830938289141413833e+01 8.569006470959595845e+01 4.164871369949494806e+01
4.837930082070707272e+01 8.571421243686869218e+01 4.167254577020202078e+01
4.838080018939393767e+01 8.574838226010101039e+01 4.168209438131312794e+01
4.845793876262626299e+01 8.580626578282827666e+01 4.170620265151514872e+01
4.838166824494949481e+01 8.586904198232323893e+01 4.169921875000000000e+01
4.844227430555555713e+01 8.590849905303029743e+01 4.171326546717171624e+01
4.842451862373737725e+01 8.596160827020202078e+01 4.169614109848485128e+01
4.846255523989898961e+01 8.601211332070707272e+01 4.170340119949494806e+01
4.849652777777777857e+01 8.606155303030303116e+01 4.171764520202020066e+01
4.853689236111111427e+01 8.610886205808080263e+01 4.173038983585858830e+01
4.852896148989898961e+01 8.616627209595959869e+01 4.175039457070707272e+01
4.857855902777777857e+01 8.623528251262625588e+01 4.175248579545454675e+01
4.858487215909090651e+01 8.628484059343433898e+01 4.174838226010101039e+01
4.861588541666666430e+01 8.634347380050505194e+01 4.174135890151514872e+01
4.858779198232323182e+01 8.643596117424242209e+01 4.174593592171716949e+01
4.866946811868687206e+01 8.650185448232323893e+01 4.176416508838384090e+01
4.863005050505050519e+01 8.647995580808080263e+01 4.165893308080808310e+01
4.843308080808080973e+01 8.626830808080808310e+01 4.144333964646464352e+01
4.831869476010101039e+01 8.605748895202020776e+01 4.136462279040404155e+01
4.837255366161615910e+01 8.599455492424242209e+01 4.144610164141413833e+01
4.834895833333333570e+01 8.596922348484848442e+01 4.153661616161615910e+01
4.841891571969696884e+01 8.594906092171717660e+01 4.159962910353535648e+01
4.838454861111111427e+01 8.594531250000000000e+01 4.161734532828283051e+01
4.843469854797979934e+01 8.591875789141414543e+01 4.163750789141413833e+01
4.841157670454545325e+01 8.591268150252524549e+01 4.165747316919191690e+01
4.843225220959595845e+01 8.592514993686869218e+01 4.168840751262626299e+01
4.841189236111111427e+01 8.590621054292928704e+01 4.170419034090909349e+01
4.842451862373737725e+01 8.588979640151515582e+01 4.169582544191919027e+01
4.837851167929292728e+01 8.588545612373737015e+01 4.171421243686868507e+01
4.845880681818182012e+01 8.591003787878787534e+01 4.174636994949494806e+01
4.839437342171716949e+01 8.590289614898989612e+01 4.176384943181817988e+01
4.846172664141413833e+01 8.593884154040404155e+01 4.176870265151514872e+01
4.845758364898989612e+01 8.598551925505050519e+01 4.178365688131312794e+01
4.848027146464646364e+01 8.603787878787878185e+01 4.178693181818182012e+01
4.847415561868687206e+01 8.608195233585858830e+01 4.182122001262626299e+01
4.852521306818182012e+01 8.612590751262625588e+01 4.182271938131312794e+01
4.854486268939393767e+01 8.619385258838383379e+01 4.184126420454545325e+01
4.859773516414141170e+01 8.622857481060606233e+01 4.183274147727272663e+01
4.860917771464646364e+01 8.627442392676768179e+01 4.183234690656565391e+01
4.860247001262626299e+01 8.631506470959595845e+01 4.184252683080808310e+01
4.863596906565656752e+01 8.636655618686869218e+01 4.184872159090909349e+01
4.867167771464646364e+01 8.643193655303029743e+01 4.184465751262626299e+01
4.865250157828283051e+01 8.648709753787878185e+01 4.184773516414141170e+01
4.870123106060606233e+01 8.653519570707071296e+01 4.185637626262626299e+01
4.872230113636363313e+01 8.662807765151515582e+01 4.186845012626262275e+01
4.875576073232323182e+01 8.668252840909090651e+01 4.185061553030303116e+01
4.873417771464646364e+01 8.665589488636364024e+01 4.174333175505050519e+01
4.856313131313131493e+01 8.642913510101010388e+01 4.155429292929292728e+01
4.849214804292929415e+01 8.631253945707071296e+01 4.153176294191919027e+01
4.846815814393939092e+01 8.620332228535353636e+01 4.160736268939393767e+01
4.851140309343434609e+01 8.622305082070707272e+01 4.166449652777777857e+01
4.857477114898989612e+01 8.624206912878787534e+01 4.170987215909090651e+01
4.854131155303030454e+01 8.626542771464646364e+01 4.173875473484848442e+01
4.854533617424242209e+01 8.626219223484848442e+01 4.176708491161615910e+01
4.855969854797979934e+01 8.628144728535353636e+01 4.179423137626262275e+01
4.861032196969696884e+01 8.627761994949494806e+01 4.177351641414141170e+01
4.856269728535353636e+01 8.624546243686869218e+01 4.175887784090909349e+01
4.854730902777777857e+01 8.623922821969696884e+01 4.176905776515151558e+01
4.855291193181817988e+01 8.622794349747475451e+01 4.179517834595959869e+01
4.859592013888888573e+01 8.625990372474747403e+01 4.182240372474747403e+01
4.857725694444444287e+01 8.630673926767676107e+01 4.184903724747474740e+01
4.862168560606060908e+01 8.636111111111111427e+01 4.187326388888888573e+01
4.863715277777777857e+01 8.640135732323231821e+01 4.187973484848485128e+01
4.867219065656565391e+01 8.645123106060606233e+01 4.190309343434343248e+01
4.870186237373737725e+01 8.653282828282827666e+01 4.191871843434343248e+01
4.871275252525252597e+01 8.654545454545454675e+01 4.190230429292929415e+01
4.867400568181817988e+01 8.659398674242424931e+01 4.190285669191919027e+01
4.874861900252525260e+01 8.662645991161616621e+01 4.191512784090909349e+01
4.873263888888888573e+01 8.669523358585858830e+01 4.190577651515151558e+01
4.878756313131312794e+01 8.672064393939393767e+01 4.190625000000000000e+01
4.877170138888888573e+01 8.679048295454545325e+01 4.189607007575757791e+01
4.883972537878787534e+01 8.685314078282827666e+01 4.191279987373737725e+01
4.886588541666666430e+01 8.693233112373737015e+01 4.193138415404040131e+01
4.886545138888888573e+01 8.698161300505050519e+01 4.189543876262626299e+01
4.880022885101010388e+01 8.693596117424242209e+01 4.178728693181817988e+01
4.866493055555555713e+01 8.674921085858585457e+01 4.159769570707070585e+01
4.858136047979797922e+01 8.659793244949494806e+01 4.155626578282828376e+01
4.861130839646464352e+01 8.656948390151515582e+01 4.161699021464646364e+01
4.859473642676767469e+01 8.650824652777777146e+01 4.169195864898989612e+01
4.860373263888888573e+01 8.649830334595959869e+01 4.173299400252525260e+01
4.861612215909090651e+01 8.645308554292928704e+01 4.177174084595959869e+01
4.863979640151514872e+01 8.644693023989898961e+01 4.179462594696969546e+01
4.865147569444444287e+01 8.645229640151515582e+01 4.181861584595959869e+01
4.864322916666666430e+01 8.644689078282827666e+01 4.181904987373737725e+01
4.861742424242424221e+01 8.644744318181818699e+01 4.182275883838384090e+01
4.861801609848485128e+01 8.642136205808080263e+01 4.183692392676767469e+01
4.860799400252525260e+01 8.642144097222222854e+01 4.183211016414141170e+01
4.866477272727272663e+01 8.644965277777777146e+01 4.187310606060606233e+01
4.866208964646464352e+01 8.647364267676768179e+01 4.189299242424242209e+01
4.868568497474747403e+01 8.652122790404040131e+01 4.191453598484848442e+01
4.867369002525252597e+01 8.656652462121212466e+01 4.192163825757575779e+01
4.874723800505050519e+01 8.660692866161616621e+01 4.192810921717171624e+01
4.874956597222222143e+01 8.666560132575757791e+01 4.195142834595959869e+01
4.879565183080808310e+01 8.668296243686869218e+01 4.196657986111111427e+01
4.878669507575757791e+01 8.674913194444444287e+01 4.195572916666666430e+01
4.884256628787878896e+01 8.679269255050505194e+01 4.196472537878787534e+01
4.882855902777777857e+01 8.683250473484848442e+01 4.195497948232323182e+01
4.884947127525252597e+01 8.688656092171717660e+01 4.195142834595959869e+01
4.883475378787878896e+01 8.694128787878787534e+01 4.197458964646464352e+01
4.890076546717171624e+01 8.700035511363635976e+01 4.200019728535353636e+01
4.892554450757575779e+01 8.704075915404040131e+01 4.198615056818182012e+01
4.889421559343434609e+01 8.710854640151515582e+01 4.197297190656565391e+01
4.895213857323232531e+01 8.717514993686869218e+01 4.196223958333333570e+01
4.894543087121212466e+01 8.717759627525252597e+01 4.189650410353535648e+01
4.875003945707070585e+01 8.696247632575757791e+01 4.165281723484848442e+01
4.864626736111111427e+01 8.678768150252524549e+01 4.156956281565656752e+01
4.866579861111111427e+01 8.673050820707071296e+01 4.162365845959595845e+01
4.868130523989898961e+01 8.667357165404040131e+01 4.169077493686868507e+01
4.869397095959595845e+01 8.664362373737374412e+01 4.174226641414141170e+01
4.867175662878787534e+01 8.662645991161616621e+01 4.176724273989898961e+01
4.866122159090909349e+01 8.659588068181818699e+01 4.177122790404040131e+01
4.869266887626262275e+01 8.657193023989898961e+01 4.181182922979797922e+01
4.867412405303030454e+01 8.657311395202020776e+01 4.182879577020202078e+01
4.866710069444444287e+01 8.656403882575757791e+01 4.184607796717171624e+01
4.867440025252525260e+01 8.656328914141414543e+01 4.185353535353535648e+01
4.869720643939393767e+01 8.655358270202020776e+01 4.186355744949494806e+01
4.865968276515151558e+01 8.655567392676768179e+01 4.187401357323232531e+01
4.871515940656565391e+01 8.657137784090909349e+01 4.189492582070707272e+01
4.876807133838384090e+01 8.664891098484848442e+01 4.194026199494949481e+01
4.877576546717171624e+01 8.670063920454545325e+01 4.197036773989898961e+01
4.876219223484848442e+01 8.672383996212121815e+01 4.197352430555555713e+01
4.880133364898989612e+01 8.676598011363635976e+01 4.196216066919191690e+01
4.880220170454545325e+01 8.680362215909090651e+01 4.197565498737373701e+01
4.883049242424242209e+01 8.685306186868686495e+01 4.197790404040404155e+01
4.882062815656565391e+01 8.689464962121212466e+01 4.197056502525252597e+01
4.888214172979797922e+01 8.695979324494949481e+01 4.199830334595959869e+01
4.889745107323232531e+01 8.700824652777777146e+01 4.198299400252525260e+01
4.892171717171716949e+01 8.704892676767676107e+01 4.199542297979797922e+01
4.893422506313131493e+01 8.710152304292928704e+01 4.197920612373737725e+01
4.896129261363636687e+01 8.716331281565656752e+01 4.199491003787878896e+01
4.898058712121212466e+01 8.721543560606060908e+01 4.199873737373737725e+01
4.901574337121212466e+01 8.728152619949494806e+01 4.198875473484848442e+01
4.902268781565656752e+01 8.735396938131313505e+01 4.199333175505050519e+01
4.907816445707070585e+01 8.741654829545454675e+01 4.198599273989898961e+01
4.893402777777777857e+01 8.733506944444444287e+01 4.184690656565656752e+01
4.882252209595959869e+01 8.713202335858585457e+01 4.162365845959595845e+01
4.872198547979797922e+01 8.698982007575757791e+01 4.156147411616161946e+01
4.872040719696969546e+01 8.692258522727273373e+01 4.160061553030303116e+01
4.873607165404040131e+01 8.690163352272726627e+01 4.171287089646464352e+01
4.877103061868687206e+01 8.689271622474747403e+01 4.173725536616161946e+01
4.874281881313131493e+01 8.687997159090909349e+01 4.176207386363636687e+01
4.878495896464646364e+01 8.686166351010101039e+01 4.177848800505050519e+01
4.874988162878787534e+01 8.685436395202020776e+01 4.180654198232323182e+01
4.879561237373737725e+01 8.686710858585858830e+01 4.183175505050505194e+01
4.878543244949494806e+01 8.687776199494949481e+01 4.183893623737373701e+01
4.878953598484848442e+01 8.686119002525252597e+01 4.184209280303030454e+01
4.877734375000000000e+01 8.686399147727273373e+01 4.185467960858586167e+01
4.881277619949494806e+01 8.687322443181818699e+01 4.186864741161615910e+01
4.880437184343434609e+01 8.690001578282827666e+01 4.189607007575757791e+01
4.886722695707070585e+01 8.693114741161616621e+01 4.191378630050505194e+01
4.887251420454545325e+01 8.697241950757575069e+01 4.192901672979797922e+01
4.889433396464646364e+01 8.702927714646465063e+01 4.193994633838384090e+01
4.892700441919191690e+01 8.708656881313130782e+01 4.196646148989898961e+01
4.895620265151514872e+01 8.714196654040404155e+01 4.196519886363636687e+01
4.894977114898989612e+01 8.716883680555555713e+01 4.196934185606060908e+01
4.896271306818182012e+01 8.721776357323231821e+01 4.197202493686868507e+01
4.893919665404040131e+01 8.726669034090909349e+01 4.197328756313131493e+01
4.898812342171716949e+01 8.731498579545454675e+01 4.199112215909090651e+01
4.901744002525252597e+01 8.737239583333332860e+01 4.198255997474747403e+01
4.906253945707070585e+01 8.741623263888888573e+01 4.197668087121212466e+01
4.904833491161615910e+01 8.748394097222222854e+01 4.199088541666666430e+01
4.909864267676767469e+01 8.754150883838383379e+01 4.201325757575757791e+01
4.910669191919191690e+01 8.760195707070707272e+01 4.198784722222222143e+01
4.915451388888888573e+01 8.765072601010101039e+01 4.198437500000000000e+01
4.915218592171716949e+01 8.773709753787878185e+01 4.201029829545454675e+01
4.919180082070707272e+01 8.775445864898989612e+01 4.194779829545454675e+01
4.902619949494949481e+01 8.762563131313130782e+01 4.171401515151514872e+01
4.893260732323232531e+01 8.743166035353534937e+01 4.160495580808080973e+01
4.888924400252525260e+01 8.736841066919191690e+01 4.160720486111111427e+01
4.889764835858586167e+01 8.734288194444444287e+01 4.166769255050505194e+01
4.892376893939393767e+01 8.734406565656566102e+01 4.172474747474747403e+01
4.893323863636363313e+01 8.734138257575757791e+01 4.176957070707070585e+01
4.891773200757575779e+01 8.735728377525252597e+01 4.177047821969696884e+01
4.893832859848485128e+01 8.733116319444444287e+01 4.177765940656565391e+01
4.896776357323232531e+01 8.734481534090909349e+01 4.180772569444444287e+01
4.897360321969696884e+01 8.734765625000000000e+01 4.181340751262626299e+01
4.897758838383838054e+01 8.735621843434343248e+01 4.180681818181817988e+01
4.897356376262626299e+01 8.734083017676768179e+01 4.182157512626262275e+01
4.895746527777777857e+01 8.735787563131313505e+01 4.185124684343434609e+01
4.899210858585858830e+01 8.738273358585858830e+01 4.186016414141413833e+01
4.899151672979797922e+01 8.740108112373737015e+01 4.189997632575757791e+01
4.904178503787878896e+01 8.744977114898989612e+01 4.192183554292929415e+01
4.904486268939393767e+01 8.751108743686869218e+01 4.193217329545454675e+01
4.910649463383838054e+01 8.756640625000000000e+01 4.194708806818182012e+01
4.907990056818182012e+01 8.758937026515151558e+01 4.194985006313131493e+01
4.910081281565656752e+01 8.761643781565656752e+01 4.195687342171716949e+01
4.914034880050505194e+01 8.766481218434343248e+01 4.194764046717171624e+01
4.917826704545454675e+01 8.770951704545454675e+01 4.195604482323232531e+01
4.915072601010101039e+01 8.774968434343433898e+01 4.194981060606060908e+01
4.920162563131312794e+01 8.779821654040404155e+01 4.197072285353535648e+01
4.920348011363636687e+01 8.786288667929292728e+01 4.196216066919191690e+01
4.924475220959595845e+01 8.792609690656566102e+01 4.195876736111111427e+01
4.923855744949494806e+01 8.796788194444444287e+01 4.196977588383838054e+01
4.926538825757575779e+01 8.800591856060606233e+01 4.198555871212121104e+01
4.926605902777777857e+01 8.806025094696970257e+01 4.196760574494949481e+01
4.928069760101010388e+01 8.809319760101010388e+01 4.192921401515151558e+01
4.916465435606060908e+01 8.797636521464646364e+01 4.174751420454545325e+01
4.909244791666666430e+01 8.781893150252524549e+01 4.160933554292929415e+01
4.896705334595959869e+01 8.769511521464646364e+01 4.158021622474747403e+01
4.907244318181817988e+01 8.770028409090909349e+01 4.163383838383838054e+01
4.907141729797979934e+01 8.772608901515151558e+01 4.171220012626262275e+01
4.908321496212121104e+01 8.772873263888888573e+01 4.175319602272727337e+01
4.908029513888888573e+01 8.775185448232323893e+01 4.178436710858586167e+01
4.913525883838384090e+01 8.777667297979797922e+01 4.182528409090909349e+01
4.906778724747474740e+01 8.779853219696970257e+01 4.183656881313131493e+01
4.914105902777777857e+01 8.781135574494949481e+01 4.183124210858586167e+01
4.910033933080808310e+01 8.778121054292928704e+01 4.180598958333333570e+01
4.909939236111111427e+01 8.775911458333332860e+01 4.180630523989898961e+01
4.909528882575757791e+01 8.775043402777777146e+01 4.182682291666666430e+01
4.913762626262626299e+01 8.780255681818181301e+01 4.187263257575757791e+01
4.916489109848485128e+01 8.784765625000000000e+01 4.189311079545454675e+01
4.921796085858586167e+01 8.788289141414141170e+01 4.190877525252525260e+01
4.920821496212121104e+01 8.792380839646465063e+01 4.192191445707070585e+01
4.921358112373737725e+01 8.796673768939393767e+01 4.192254577020202078e+01
4.922502367424242209e+01 8.799648832070707272e+01 4.191662720959595845e+01
4.927809343434343248e+01 8.803093434343433898e+01 4.193371212121212466e+01
4.932208806818182012e+01 8.811391256313130782e+01 4.195024463383838054e+01
4.934994476010101039e+01 8.814918718434343248e+01 4.196800031565656752e+01
4.931427556818182012e+01 8.818327809343433898e+01 4.195063920454545325e+01
4.937168560606060908e+01 8.821401515151515582e+01 4.195501893939393767e+01
4.933080808080808310e+01 8.825252525252524549e+01 4.193797348484848442e+01
4.935570549242424221e+01 8.829999210858585457e+01 4.194913983585858830e+01
4.937618371212121104e+01 8.835029987373737015e+01 4.194846906565656752e+01
4.940972222222222143e+01 8.838115530303029743e+01 4.192550505050505194e+01
4.922427398989898961e+01 8.827020202020202078e+01 4.175299873737373701e+01
4.915222537878787534e+01 8.811261047979797922e+01 4.159477588383838054e+01
4.908668718434343248e+01 8.799498895202020776e+01 4.159126420454545325e+01
4.915088383838384090e+01 8.797238005050505194e+01 4.164646464646464352e+01
4.913478535353535648e+01 8.797348484848484418e+01 4.171953914141413833e+01
4.917763573232323182e+01 8.796677714646465063e+01 4.176428345959595845e+01
4.918690814393939092e+01 8.797478693181818699e+01 4.178949652777777857e+01
4.921993371212121104e+01 8.799013573232323893e+01 4.180484532828283051e+01
4.918907828282828376e+01 8.799384469696970257e+01 4.181676136363636687e+01
4.917021780303030454e+01 8.799155618686869218e+01 4.181415719696969546e+01
4.915175189393939092e+01 8.795809659090909349e+01 4.180121527777777857e+01
4.919491792929292728e+01 8.791130050505050519e+01 4.179624368686868507e+01
4.918576388888888573e+01 8.792345328282827666e+01 4.183838383838384090e+01
4.919314236111111427e+01 8.793777619949494806e+01 4.186801609848485128e+01
4.920375631313131493e+01 8.796906565656566102e+01 4.189157196969696884e+01
4.924869791666666430e+01 8.799301609848484418e+01 4.192309816919191690e+01
4.926803188131312794e+01 8.804170612373737015e+01 4.194464172979797922e+01
4.926807133838384090e+01 8.808151830808080263e+01 4.193915719696969546e+01
4.926215277777777857e+01 8.812863005050505194e+01 4.193892045454545325e+01
4.932717803030303116e+01 8.814946338383838054e+01 4.195359848484848442e+01
4.930823863636363313e+01 8.818434343434343248e+01 4.195075757575757791e+01
4.934169823232323182e+01 8.822758838383838054e+01 4.196038510101010388e+01
4.931127683080808310e+01 8.822747001262625588e+01 4.194369476010101039e+01
4.935653409090909349e+01 8.826057449494949481e+01 4.194097222222222143e+01
4.938277304292929415e+01 8.830070233585858830e+01 4.196137152777777857e+01
4.934540719696969546e+01 8.833593750000000000e+01 4.193836805555555713e+01
4.929616477272727337e+01 8.825907512626262985e+01 4.180326704545454675e+01
4.918043718434343248e+01 8.803207859848484418e+01 4.163056344696969546e+01
4.903910195707070585e+01 8.781340751262625588e+01 4.160491635101010388e+01
4.908013731060606233e+01 8.775106534090909349e+01 4.167088857323232531e+01
4.908092645202020066e+01 8.771239741161616621e+01 4.176763731060606233e+01
4.912018623737373701e+01 8.768678977272726627e+01 4.182662563131312794e+01
4.908416193181817988e+01 8.764729324494949481e+01 4.187472380050505194e+01
4.906530145202020066e+01 8.759449968434343248e+01 4.188032670454545325e+01
4.907698074494949481e+01 8.758455650252524549e+01 4.189926609848485128e+01
4.908226799242424221e+01 8.756111900252524549e+01 4.191370738636363313e+01
4.904754577020202078e+01 8.751598011363635976e+01 4.192080965909090651e+01
4.903038194444444287e+01 8.747245896464646364e+01 4.193931502525252597e+01
4.899400252525252597e+01 8.742345328282827666e+01 4.193734217171716949e+01
4.904573074494949481e+01 8.743051609848484418e+01 4.198891256313131493e+01
4.905129419191919027e+01 8.741998106060606233e+01 4.202525252525252597e+01
4.909663036616161946e+01 8.746310763888888573e+01 4.206096117424242209e+01
4.907098327020202078e+01 8.748433554292928704e+01 4.206261837121212466e+01
4.912811710858586167e+01 8.752395044191919737e+01 4.209276357323232531e+01
4.911474116161615910e+01 8.755097853535353636e+01 4.211647727272727337e+01
4.915553977272727337e+01 8.756131628787878185e+01 4.211371527777777857e+01
4.914816130050505194e+01 8.759071180555555713e+01 4.212022569444444287e+01
4.916362847222222143e+01 8.762653882575757791e+01 4.213158933080808310e+01
4.914914772727272663e+01 8.764772727272726627e+01 4.211442550505050519e+01
4.916070864898989612e+01 8.767080965909090651e+01 4.212598642676767469e+01
4.918651357323232531e+01 8.771871054292928704e+01 4.212795928030303116e+01
4.921693497474747403e+01 8.775449810606060908e+01 4.213218118686868507e+01
4.920308554292929415e+01 8.778278882575757791e+01 4.210917771464646364e+01
4.911923926767676818e+01 8.766816603535353636e+01 4.196630366161615910e+01
4.895367739898989612e+01 8.741074810606060908e+01 4.180894886363636687e+01
4.890037089646464352e+01 8.723117897727273373e+01 4.183124210858586167e+01
4.886482007575757791e+01 8.705263573232323893e+01 4.188880997474747403e+01
4.886190025252525260e+01 8.699479166666667140e+01 4.195549242424242209e+01
4.884347380050505194e+01 8.694795612373737015e+01 4.201645359848485128e+01
4.885720486111111427e+01 8.686825284090909349e+01 4.202687026515151558e+01
4.881833964646464352e+01 8.680950126262625588e+01 4.204845328282828376e+01
4.884323705808080973e+01 8.676700599747475451e+01 4.210665246212121104e+01
4.883976483585858830e+01 8.673528251262625588e+01 4.214453125000000000e+01
4.884607796717171624e+01 8.670087594696970257e+01 4.216078756313131493e+01
4.882417929292929415e+01 8.666461489898989612e+01 4.217013888888888573e+01
4.882773042929292728e+01 8.664149305555555713e+01 4.218410669191919027e+01
4.881798453282828376e+01 8.663695549242424931e+01 4.222818023989898961e+01
4.889571496212121104e+01 8.665250157828282340e+01 4.225856218434343248e+01
4.884769570707070585e+01 8.666114267676768179e+01 4.227430555555555713e+01
4.886864741161615910e+01 8.668982796717172334e+01 4.230235953282828376e+01
4.885602114898989612e+01 8.673512468434343248e+01 4.232271938131312794e+01
4.890613162878787534e+01 8.676092960858585457e+01 4.231048768939393767e+01
4.886876578282828376e+01 8.680232007575757791e+01 4.233136047979797922e+01
4.886091382575757791e+01 8.684702493686869218e+01 4.230567392676767469e+01
4.891252367424242209e+01 8.688222064393939092e+01 4.232966382575757791e+01
4.894823232323232531e+01 8.693781565656566102e+01 4.233317550505050519e+01
4.893000315656565391e+01 8.695667613636364024e+01 4.232851957070707272e+01
4.898619002525252597e+01 8.704237689393939092e+01 4.233325441919191690e+01
4.900177556818182012e+01 8.708921243686869218e+01 4.232216698232323182e+01
4.907544191919191690e+01 8.715988005050505194e+01 4.236916035353535648e+01
4.906348642676767469e+01 8.721894728535353636e+01 4.234426294191919027e+01
4.901021938131312794e+01 8.719819286616161946e+01 4.225327493686868507e+01
4.882153566919191690e+01 8.697983743686869218e+01 4.200903566919191690e+01
4.871740845959595845e+01 8.675434027777777146e+01 4.193458017676767469e+01
4.869839015151514872e+01 8.664046717171717660e+01 4.198863636363636687e+01
4.874909248737373701e+01 8.656506470959595845e+01 4.206222380050505194e+01
4.872526041666666430e+01 8.653981218434343248e+01 4.212298768939393767e+01
4.874601483585858830e+01 8.649822443181818699e+01 4.214847695707070585e+01
4.872009154040404155e+01 8.645588699494949481e+01 4.215017361111111427e+01
4.872762784090909349e+01 8.643280460858585457e+01 4.218122632575757791e+01
4.870561079545454675e+01 8.642436079545454675e+01 4.220482165404040131e+01
4.871018781565656752e+01 8.641867897727273373e+01 4.223354640151514872e+01
4.869574652777777857e+01 8.641118213383838054e+01 4.224530460858586167e+01
4.874345012626262275e+01 8.640048926767676107e+01 4.225086805555555713e+01
4.872257733585858830e+01 8.641481218434343248e+01 4.226219223484848442e+01
4.877103061868687206e+01 8.642806976010101039e+01 4.229265309343434609e+01
4.876495422979797922e+01 8.647770675505050519e+01 4.232129892676767469e+01
4.882319286616161946e+01 8.651621685606060908e+01 4.232256155303030454e+01
4.880441130050505194e+01 8.656214488636364024e+01 4.234229008838384090e+01
4.881818181818182012e+01 8.659485479797979224e+01 4.234990530303030454e+01
4.882165404040404155e+01 8.665909090909090651e+01 4.235984848484848442e+01
4.885152304292929415e+01 8.671168718434343248e+01 4.234300031565656752e+01
4.886848958333333570e+01 8.675469539141414543e+01 4.234765625000000000e+01
4.893351483585858830e+01 8.682871685606060908e+01 4.234102746212121104e+01
4.887208017676767469e+01 8.689859532828282340e+01 4.229774305555555713e+01
4.890344854797979934e+01 8.692428188131313505e+01 4.231238162878787534e+01
4.896610637626262275e+01 8.697873263888888573e+01 4.232784880050505194e+01
4.897451073232323182e+01 8.704158775252524549e+01 4.231810290404040131e+01
4.900485321969696884e+01 8.712795928030303116e+01 4.233187342171716949e+01
4.903523516414141170e+01 8.717049400252524549e+01 4.230606849747474740e+01
4.904675662878787534e+01 8.724751420454545325e+01 4.232122001262626299e+01
4.904395517676767469e+01 8.725228851010101039e+01 4.223619002525252597e+01
4.885708648989898961e+01 8.707773042929292728e+01 4.198082386363636687e+01
4.877671243686868507e+01 8.689240056818181301e+01 4.187282986111111427e+01
4.875177556818182012e+01 8.683400410353534937e+01 4.190628945707070585e+01
4.879142992424242209e+01 8.682441603535353636e+01 4.198366477272727337e+01
4.881798453282828376e+01 8.685160195707071296e+01 4.203136837121212466e+01
4.883088699494949481e+01 8.682125946969696884e+01 4.204726957070707272e+01
4.878732638888888573e+01 8.679821654040404155e+01 4.205847537878787534e+01
4.878053977272727337e+01 8.678590593434343248e+01 4.207473169191919027e+01
4.878665561868687206e+01 8.679502051767676107e+01 4.207248263888888573e+01
4.882082544191919027e+01 8.680804135101010388e+01 4.207366635101010388e+01
4.881388099747474740e+01 8.680630523989898961e+01 4.208613478535353636e+01
4.882761205808080973e+01 8.682145675505050519e+01 4.208392518939393767e+01
4.883775252525252597e+01 8.683759469696970257e+01 4.210353535353535648e+01
4.890739425505050519e+01 8.689492582070707272e+01 4.211351799242424221e+01
4.890139678030303116e+01 8.693690814393939092e+01 4.215897253787878896e+01
4.887863005050505194e+01 8.698279671717172334e+01 4.215467171717171624e+01
4.890486900252525260e+01 8.703160511363635976e+01 4.215565814393939092e+01
4.895754419191919027e+01 8.708222853535353636e+01 4.216098484848485128e+01
4.895276988636363313e+01 8.712338226010101039e+01 4.214784564393939092e+01
4.900236742424242209e+01 8.717629419191919737e+01 4.215625000000000000e+01
4.900059185606060908e+01 8.721413352272726627e+01 4.215636837121212466e+01
4.897877209595959869e+01 8.727280618686869218e+01 4.215080492424242209e+01
4.903042140151514872e+01 8.732761205808080263e+01 4.215100220959595845e+01
4.907264046717171624e+01 8.740187026515151558e+01 4.212835385101010388e+01
4.907942708333333570e+01 8.744764046717172334e+01 4.213561395202020066e+01
4.911691130050505194e+01 8.750548453282827666e+01 4.214563604797979934e+01
4.913407512626262275e+01 8.760266729797979224e+01 4.217005997474747403e+01
4.916871843434343248e+01 8.763589015151515582e+01 4.217140151515151558e+01
4.915147569444444287e+01 8.769172190656566102e+01 4.216062973484848442e+01
4.917092803030303116e+01 8.771890782828282340e+01 4.208727904040404155e+01
4.902967171717171624e+01 8.759643308080808310e+01 4.188226010101010388e+01
4.894460227272727337e+01 8.744097222222222854e+01 4.175962752525252597e+01
4.892290088383838054e+01 8.741027462121212466e+01 4.179363952020202078e+01
4.899506786616161946e+01 8.742688604797979224e+01 4.185775726010101039e+01
4.898204703282828376e+01 8.744842960858585457e+01 4.188687657828283051e+01
4.900962752525252597e+01 8.745517676767676107e+01 4.190482954545454675e+01
4.902450284090909349e+01 8.747352430555555713e+01 4.192017834595959869e+01
4.905496369949494806e+01 8.748899147727273373e+01 4.193990688131312794e+01
4.904217960858586167e+01 8.750382733585858830e+01 4.193911773989898961e+01
4.900785195707070585e+01 8.750943023989898961e+01 4.193651357323232531e+01
4.903894412878787534e+01 8.748054766414141170e+01 4.192025726010101039e+01
4.902043876262626299e+01 8.750907512626262985e+01 4.193410669191919027e+01
4.906372316919191690e+01 8.753878630050505194e+01 4.196618529040404155e+01
4.909607796717171624e+01 8.758439867424242209e+01 4.198749210858586167e+01
4.912239583333333570e+01 8.766343118686869218e+01 4.200844381313131493e+01
4.914847695707070585e+01 8.770939867424242209e+01 4.201116635101010388e+01
4.917814867424242209e+01 8.775990372474747403e+01 4.202694917929292728e+01
4.919941603535353636e+01 8.779600694444444287e+01 4.204079861111111427e+01
4.922466856060606233e+01 8.786245265151515582e+01 4.204363952020202078e+01
4.922376104797979934e+01 8.791141887626262985e+01 4.203910195707070585e+01
4.922451073232323182e+01 8.793899936868686495e+01 4.201380997474747403e+01
4.921969696969696884e+01 8.798910984848484418e+01 4.201594065656565391e+01
4.925430082070707272e+01 8.800635258838383379e+01 4.201392834595959869e+01
4.931703756313131493e+01 8.807035195707071296e+01 4.200911458333333570e+01
4.924451546717171624e+01 8.814098011363635976e+01 4.199120107323232531e+01
4.926014046717171624e+01 8.819874526515151558e+01 4.198930713383838054e+01
4.931115845959595845e+01 8.825071022727273373e+01 4.199802714646464352e+01
4.939504419191919027e+01 8.831218434343433898e+01 4.201057449494949481e+01
4.935187815656565391e+01 8.830468750000000000e+01 4.190159406565656752e+01
4.917633364898989612e+01 8.812914299242424931e+01 4.169369476010101039e+01
4.914567550505050519e+01 8.805681818181818699e+01 4.163131313131312794e+01
4.919203756313131493e+01 8.804936079545454675e+01 4.167436079545454675e+01
4.917649147727272663e+01 8.806616950757575069e+01 4.171736900252525260e+01
4.922687815656565391e+01 8.809635416666667140e+01 4.176633522727272663e+01
4.924056976010101039e+01 8.810815183080808310e+01 4.179707228535353636e+01
4.924293718434343248e+01 8.814429450757575069e+01 4.183889678030303116e+01
4.928799715909090651e+01 8.816883680555555713e+01 4.183960700757575779e+01
4.929805871212121104e+01 8.820020517676768179e+01 4.182994002525252597e+01
4.923800505050505194e+01 8.820328282828282340e+01 4.179166666666666430e+01
4.926144255050505194e+01 8.820809659090909349e+01 4.178669507575757791e+01
4.923524305555555713e+01 8.820620265151515582e+01 4.179963699494949481e+01
4.928701073232323182e+01 8.824723800505050519e+01 4.183325441919191690e+01
4.930827809343434609e+01 8.829880839646465063e+01 4.185483743686868507e+01
4.934110637626262275e+01 8.834805082070707272e+01 4.186162405303030454e+01
4.935834911616161946e+01 8.839875315656566102e+01 4.187444760101010388e+01
4.938036616161615910e+01 8.843102904040404155e+01 4.187863005050505194e+01
4.940281723484848442e+01 8.846405460858585457e+01 4.187030460858586167e+01
4.944235321969696884e+01 8.852521306818181301e+01 4.187448705808080973e+01
4.939105902777777857e+01 8.856751104797979224e+01 4.186754261363636687e+01
4.939831912878787534e+01 8.859118529040404155e+01 4.187085700757575779e+01
4.940451388888888573e+01 8.864441287878787534e+01 4.186316287878787534e+01
4.946452809343434609e+01 8.868690814393939092e+01 4.185657354797979934e+01
4.947186710858586167e+01 8.873938604797979224e+01 4.186549084595959869e+01
4.953799715909090651e+01 8.881419665404040131e+01 4.188537720959595845e+01
4.952959280303030454e+01 8.884461805555555713e+01 4.187492108585858830e+01
4.952904040404040131e+01 8.890404040404040131e+01 4.177398989898989612e+01
4.938573232323232531e+01 8.875741792929292728e+01 4.162657828282828376e+01
4.928562973484848442e+01 8.862101483585858830e+01 4.149206912878787534e+01
4.929762468434343248e+01 8.860128630050505194e+01 4.149854008838384090e+01
4.933629261363636687e+01 8.860318023989898961e+01 4.153215751262626299e+01
4.934027777777777857e+01 8.862957702020202078e+01 4.158522727272727337e+01
4.936991003787878896e+01 8.867294034090909349e+01 4.162054135101010388e+01
4.937531565656565391e+01 8.866351010101010388e+01 4.164599116161615910e+01
4.940467171717171624e+01 8.867234848484848442e+01 4.165056818181817988e+01
4.937527619949494806e+01 8.869740372474747403e+01 4.164532039141413833e+01
4.940104166666666430e+01 8.871101641414141170e+01 4.162626262626262275e+01
4.938904671717171624e+01 8.871148989898989612e+01 4.162863005050505194e+01
4.943331755050505194e+01 8.872009154040404155e+01 4.163596906565656752e+01
4.941102430555555713e+01 8.875366950757575069e+01 4.166386521464646364e+01
4.947624684343434609e+01 8.879379734848484418e+01 4.166485164141413833e+01
4.944053819444444287e+01 8.882421875000000000e+01 4.168280460858586167e+01
4.948200757575757791e+01 8.885527146464646364e+01 4.170217803030303116e+01
4.945924084595959869e+01 8.889311079545454675e+01 4.170797821969696884e+01
4.949715909090909349e+01 8.893260732323231821e+01 4.170928030303030454e+01
4.948117897727272663e+01 8.897581281565656752e+01 4.169945549242424221e+01
4.954719065656565391e+01 8.902414772727273373e+01 4.170643939393939092e+01
4.955306976010101039e+01 8.905101799242424931e+01 4.168959122474747403e+01
4.957200915404040131e+01 8.908116319444444287e+01 4.168832859848485128e+01
4.955113636363636687e+01 8.913131313131313505e+01 4.168418560606060908e+01
4.959114583333333570e+01 8.919547032828282340e+01 4.168442234848485128e+01
4.959272411616161946e+01 8.922877209595959869e+01 4.169152462121212466e+01
4.965940656565656752e+01 8.927998737373737015e+01 4.169602272727272663e+01
4.964733270202020066e+01 8.933183396464646364e+01 4.168394886363636687e+01
4.961568813131312794e+01 8.934106691919191690e+01 4.162010732323232531e+01
4.948962279040404155e+01 8.919227430555555713e+01 4.136746369949494806e+01
4.939354482323232531e+01 8.906762941919191690e+01 4.125497159090909349e+01
4.938415404040404155e+01 8.900994318181818699e+01 4.124179292929292728e+01
4.944807449494949481e+01 8.902178030303029743e+01 4.130886994949494806e+01
4.942846433080808310e+01 8.902852746212121815e+01 4.135728377525252597e+01
4.946709280303030454e+01 8.902675189393939092e+01 4.138044507575757791e+01
4.947478693181817988e+01 8.904596748737374412e+01 4.139240056818182012e+01
4.946713226010101039e+01 8.903594539141414543e+01 4.140557922979797922e+01
4.944341856060606233e+01 8.905153093434343248e+01 4.143252840909090651e+01
4.949388415404040131e+01 8.906143465909090651e+01 4.143848642676767469e+01
4.947664141414141170e+01 8.905981691919191690e+01 4.143418560606060908e+01
4.948204703282828376e+01 8.905575284090909349e+01 4.143327809343434609e+01
4.946567234848485128e+01 8.906904987373737015e+01 4.145052083333333570e+01
4.955969854797979934e+01 8.910546875000000000e+01 4.148504577020202078e+01
4.955697601010101039e+01 8.913052398989898961e+01 4.150931186868687206e+01
4.958652935606060908e+01 8.916449652777777146e+01 4.152655460858586167e+01
4.954332386363636687e+01 8.919594381313130782e+01 4.152533143939393767e+01
4.957129892676767469e+01 8.923638731060606233e+01 4.150927241161615910e+01
4.961051925505050519e+01 8.927971117424242209e+01 4.152197758838384090e+01
4.960649463383838054e+01 8.931214488636364024e+01 4.152489741161615910e+01
4.958877840909090651e+01 8.932520517676768179e+01 4.152012310606060908e+01
4.963241792929292728e+01 8.938289141414141170e+01 4.151388888888888573e+01
4.967120422979797922e+01 8.941946811868686495e+01 4.151874210858586167e+01
4.970044191919191690e+01 8.945770202020202078e+01 4.153345959595959869e+01
4.966753472222222143e+01 8.950670770202020776e+01 4.154679608585858830e+01
4.970300662878787534e+01 8.956585385101010388e+01 4.154502051767676818e+01
4.973820233585858830e+01 8.959094854797979224e+01 4.152181976010101039e+01
4.973473011363636687e+01 8.965202809343433898e+01 4.154723011363636687e+01
4.973583491161615910e+01 8.966323390151515582e+01 4.152639678030303116e+01
4.970931976010101039e+01 8.965407986111111427e+01 4.144543087121212466e+01
4.957023358585858830e+01 8.947427398989898961e+01 4.118450126262626299e+01
4.947305082070707272e+01 8.935404829545454675e+01 4.106743213383838054e+01
4.946914457070707272e+01 8.931699810606060908e+01 4.110582386363636687e+01
4.950674715909090651e+01 8.930788352272726627e+01 4.116189236111111427e+01
4.953085542929292728e+01 8.932252209595959869e+01 4.120225694444444287e+01
4.954541508838384090e+01 8.932271938131313505e+01 4.121066130050505194e+01
4.952698863636363313e+01 8.931265782828282340e+01 4.121764520202020066e+01
4.957753314393939092e+01 8.932169349747475451e+01 4.123914930555555713e+01
4.954336332070707272e+01 8.931514362373737015e+01 4.126163983585858830e+01
4.955291193181817988e+01 8.932264046717172334e+01 4.126298137626262275e+01
4.953961489898989612e+01 8.932354797979797922e+01 4.127635732323232531e+01
4.958834438131312794e+01 8.931782670454545325e+01 4.128452493686868507e+01
4.956222380050505194e+01 8.931080334595959869e+01 4.127687026515151558e+01
4.959142203282828376e+01 8.934505208333332860e+01 4.131395991161615910e+01
4.956190814393939092e+01 8.938435132575757791e+01 4.133889678030303116e+01
4.963091856060606233e+01 8.941516729797979224e+01 4.136103219696969546e+01
4.960937500000000000e+01 8.945233585858585457e+01 4.137357954545454675e+01
4.966548295454545325e+01 8.948508522727273373e+01 4.139007260101010388e+01
4.964062500000000000e+01 8.951420454545454675e+01 4.138131313131312794e+01
4.964579387626262275e+01 8.954636205808080263e+01 4.138963857323232531e+01
4.963790246212121104e+01 8.958502998737374412e+01 4.136627998737373701e+01
4.970494002525252597e+01 8.962618371212121815e+01 4.137523674242424221e+01
4.965743371212121104e+01 8.966232638888888573e+01 4.136892361111111427e+01
4.973461174242424221e+01 8.969704861111111427e+01 4.138170770202020066e+01
4.971263415404040131e+01 8.973883364898989612e+01 4.140202809343434609e+01
4.977651515151514872e+01 8.981186868686869218e+01 4.141919191919191690e+01
4.980247790404040131e+01 8.984919507575757791e+01 4.140490845959595845e+01
4.981885258838384090e+01 8.987993213383838054e+01 4.139208491161615910e+01
4.986245265151514872e+01 8.993710542929292728e+01 4.142084911616161946e+01
4.984497316919191690e+01 8.998228377525252597e+01 4.141994160353535648e+01
4.980445075757575779e+01 8.997301136363635976e+01 4.135527146464646364e+01
4.966690340909090651e+01 8.981131628787878185e+01 4.106289457070707272e+01
4.957011521464646364e+01 8.970537405303029743e+01 4.096058238636363313e+01
4.958471433080808310e+01 8.964358428030303116e+01 4.095766256313131493e+01
4.960850694444444287e+01 8.966532512626262985e+01 4.102217487373737725e+01
4.964547821969696884e+01 8.966931029040404155e+01 4.108029513888888573e+01
4.962937973484848442e+01 8.969693023989898961e+01 4.110286458333333570e+01
4.967814867424242209e+01 8.970466382575757791e+01 4.110886205808080973e+01
4.962870896464646364e+01 8.969231376262625588e+01 4.111371527777777857e+01
4.968142361111111427e+01 8.971220012626262985e+01 4.115774936868687206e+01
4.969685132575757791e+01 8.972115688131313505e+01 4.114287405303030454e+01
4.968604008838384090e+01 8.970576862373737015e+01 4.114232165404040131e+01
4.964275568181817988e+01 8.970509785353534937e+01 4.113628472222222143e+01
4.968189709595959869e+01 8.973997790404040131e+01 4.116122159090909349e+01
4.969831123737373701e+01 8.976523042929292728e+01 4.117290088383838054e+01
4.973429608585858830e+01 8.979553345959595845e+01 4.122088068181817988e+01
4.974305555555555713e+01 8.984580176767676107e+01 4.124936868686868507e+01
4.975311710858586167e+01 8.989105902777777146e+01 4.124838226010101039e+01
4.975256470959595845e+01 8.991591698232323893e+01 4.126598011363636687e+01
4.981684027777777857e+01 8.995793876262625588e+01 4.125765467171716949e+01
4.980101799242424221e+01 8.996721117424242209e+01 4.125003945707070585e+01
4.986809501262626299e+01 9.001250789141414543e+01 4.126913667929292728e+01
4.986991003787878896e+01 9.004336332070707272e+01 4.127063604797979934e+01
4.988510101010101039e+01 9.008128156565656752e+01 4.126988636363636687e+01
4.986864741161615910e+01 9.012906407828282340e+01 4.126321811868687206e+01
4.987795928030303116e+01 9.016141887626262985e+01 4.125674715909090651e+01
4.990625000000000000e+01 9.022174873737374412e+01 4.126546717171716949e+01
4.992017834595959869e+01 9.026487531565656752e+01 4.126818970959595845e+01
4.992716224747474740e+01 9.031904987373737015e+01 4.128527462121212466e+01
4.994582544191919027e+01 9.036075599747475451e+01 4.128752367424242209e+01
4.995762310606060908e+01 9.039780618686869218e+01 4.127249053030303116e+01
4.987898516414141170e+01 9.030338541666667140e+01 4.110026041666666430e+01
4.972076231060606233e+01 9.013458806818181301e+01 4.087385574494949481e+01
4.972293244949494806e+01 9.009777462121212466e+01 4.084382891414141170e+01
4.974629103535353636e+01 9.010550820707071296e+01 4.088896780303030454e+01
4.979387626262626299e+01 9.013304924242424931e+01 4.096654040404040131e+01
4.980669981060606233e+01 9.015944602272726627e+01 4.100714172979797922e+01
4.982185132575757791e+01 9.015770991161616621e+01 4.102292455808080973e+01
4.983124210858586167e+01 9.018114741161616621e+01 4.102694917929292728e+01
4.984398674242424221e+01 9.020651830808080263e+01 4.104758522727272663e+01
4.983858112373737725e+01 9.021310763888888573e+01 4.104249526515151558e+01
4.981506470959595845e+01 9.020316445707071296e+01 4.102008364898989612e+01
4.984785353535353636e+01 9.021070075757575069e+01 4.102320075757575779e+01
4.985976957070707272e+01 9.021993371212121815e+01 4.103922032828283051e+01
4.988352272727272663e+01 9.024936868686869218e+01 4.107054924242424221e+01
4.992834595959595845e+01 9.030129419191919737e+01 4.111158459595959869e+01
4.989169034090909349e+01 9.033345170454545325e+01 4.112574968434343248e+01
4.994645675505050519e+01 9.035460069444444287e+01 4.113174715909090651e+01
4.995553188131312794e+01 9.040581597222222854e+01 4.113940183080808310e+01
4.997620738636363313e+01 9.045095486111111427e+01 4.113245738636363313e+01
4.998725536616161946e+01 9.047147253787878185e+01 4.113561395202020066e+01
4.994298453282828376e+01 9.049080650252524549e+01 4.113001104797979934e+01
4.999869791666666430e+01 9.051337594696970257e+01 4.113032670454545325e+01
4.999932922979797922e+01 9.053420928030303116e+01 4.114279513888888573e+01
4.998279671717171624e+01 9.058080808080808310e+01 4.113510101010101039e+01
5.000347222222222143e+01 9.062215909090909349e+01 4.113099747474747403e+01
5.002043876262626299e+01 9.065617108585858830e+01 4.113107638888888573e+01
5.004466540404040131e+01 9.070328282828282340e+01 4.114315025252525260e+01
5.005216224747474740e+01 9.073871527777777146e+01 4.115206755050505194e+01
5.008029513888888573e+01 9.076684816919191690e+01 4.110270675505050519e+01
4.992522885101010388e+01 9.062788036616161946e+01 4.089303188131312794e+01
4.983546401515151558e+01 9.051191603535353636e+01 4.076538825757575779e+01
4.982544191919191690e+01 9.046496212121212466e+01 4.076167929292929415e+01
4.986312342171716949e+01 9.048196811868686495e+01 4.081104008838384090e+01
4.989966066919191690e+01 9.049151672979797922e+01 4.089492582070707272e+01
4.990198863636363313e+01 9.049526515151515582e+01 4.091193181818182012e+01
4.988738952020202078e+01 9.049834280303029743e+01 4.089859532828283051e+01
4.992645202020202078e+01 9.052446338383838054e+01 4.095186237373737725e+01
4.990072601010101039e+01 9.052477904040404155e+01 4.095675505050505194e+01
4.990557922979797922e+01 9.050943023989898961e+01 4.093998579545454675e+01
4.988474589646464352e+01 9.047944286616161946e+01 4.093051609848485128e+01
4.993201546717171624e+01 9.049041193181818699e+01 4.093201546717171624e+01
4.992613636363636687e+01 9.049984217171717660e+01 4.094965277777777857e+01
4.999617266414141170e+01 9.054194286616161946e+01 4.098938604797979934e+01
4.995999053030303116e+01 9.055784406565656752e+01 4.100797032828283051e+01
4.997451073232323182e+01 9.058183396464646364e+01 4.102801452020202078e+01
5.000418244949494806e+01 9.060882260101010388e+01 4.101901830808080973e+01
5.000891729797979934e+01 9.065017361111111427e+01 4.104663825757575779e+01
5.003562973484848442e+01 9.067925347222222854e+01 4.106072443181817988e+01
5.003981218434343248e+01 9.069258996212121815e+01 4.103744476010101039e+01
5.002900094696969546e+01 9.072739109848484418e+01 4.104872948232323182e+01
5.005295138888888573e+01 9.074439709595959869e+01 4.102959280303030454e+01
5.005776515151514872e+01 9.078409090909090651e+01 4.105271464646464352e+01
5.005808080808080973e+01 9.080950126262625588e+01 4.104466540404040131e+01
5.008151830808080973e+01 9.085771780303029743e+01 4.105879103535353636e+01
5.012306660353535648e+01 9.087811710858585457e+01 4.107461332070707272e+01
5.012239583333333570e+01 9.091642992424242209e+01 4.108057133838384090e+01
5.003290719696969546e+01 9.088691603535353636e+01 4.097640467171716949e+01
4.989618844696969546e+01 9.068596117424242209e+01 4.073473011363636687e+01
4.983972537878787534e+01 9.052264835858585457e+01 4.067005997474747403e+01
4.985586332070707272e+01 9.050074968434343248e+01 4.069708806818182012e+01
4.986414930555555713e+01 9.046500157828282340e+01 4.076676925505050519e+01
4.987622316919191690e+01 9.045529513888888573e+01 4.083566130050505194e+01
4.987282986111111427e+01 9.043359375000000000e+01 4.085136521464646364e+01
4.986726641414141170e+01 9.040135732323231821e+01 4.086379419191919027e+01
4.988348327020202078e+01 9.037006786616161946e+01 4.089311079545454675e+01
4.985227272727272663e+01 9.035353535353534937e+01 4.089914772727272663e+01
4.984335542929292728e+01 9.029379734848484418e+01 4.090932765151514872e+01
4.985550820707070585e+01 9.027848800505050519e+01 4.093331755050505194e+01
4.985842803030303116e+01 9.024305555555555713e+01 4.093481691919191690e+01
4.983641098484848442e+01 9.024644886363635976e+01 4.097245896464646364e+01
4.983400410353535648e+01 9.026645359848484418e+01 4.099056976010101039e+01
4.987914299242424221e+01 9.026676925505050519e+01 4.102308238636363313e+01
4.995257260101010388e+01 9.027596275252524549e+01 4.106415719696969546e+01
4.991228693181817988e+01 9.029533617424242209e+01 4.107848011363636687e+01
4.993635574494949481e+01 9.030567392676768179e+01 4.109023832070707272e+01
4.989524147727272663e+01 9.032974273989898961e+01 4.109852430555555713e+01
4.994933712121212466e+01 9.034185606060606233e+01 4.109248737373737725e+01
4.992522885101010388e+01 9.035152304292928704e+01 4.112140940656565391e+01
4.996231849747474740e+01 9.036556976010101039e+01 4.111714804292929415e+01
4.993469854797979934e+01 9.040534248737374412e+01 4.110641571969696884e+01
4.996843434343434609e+01 9.043055555555555713e+01 4.111695075757575779e+01
4.996362058080808310e+01 9.045778093434343248e+01 4.113612689393939092e+01
4.998946496212121104e+01 9.048946496212121815e+01 4.114255839646464352e+01
4.999585700757575779e+01 9.052979008838383379e+01 4.116883680555555713e+01
5.003772095959595845e+01 9.054813762626262985e+01 4.115388257575757791e+01
4.982855902777777857e+01 9.038585069444444287e+01 4.094961332070707272e+01
4.972940340909090651e+01 9.020036300505050519e+01 4.075149936868687206e+01
4.968643465909090651e+01 9.008542455808080263e+01 4.075209122474747403e+01
4.969941603535353636e+01 9.000733901515151558e+01 4.082646780303030454e+01
4.971369949494949481e+01 8.996732954545454675e+01 4.092834595959595845e+01
4.974187184343434609e+01 8.994136679292928704e+01 4.095478219696969546e+01
4.971014835858586167e+01 8.989670138888888573e+01 4.099281881313131493e+01
4.969223484848485128e+01 8.982402146464646364e+01 4.101231060606060908e+01
4.967771464646464352e+01 8.980303030303029743e+01 4.103772095959595845e+01
4.970699179292929415e+01 8.977327967171717660e+01 4.106731376262626299e+01
4.966493055555555713e+01 8.972932449494949481e+01 4.109201388888888573e+01
4.969215593434343248e+01 8.968868371212121815e+01 4.109382891414141170e+01
4.963427241161615910e+01 8.965415877525252597e+01 4.113048453282828376e+01
4.967455808080808310e+01 8.964362373737374412e+01 4.114441287878787534e+01
4.968880208333333570e+01 8.968406723484848442e+01 4.120931976010101039e+01
4.973421717171716949e+01 8.968686868686869218e+01 4.123753156565656752e+01
4.975161773989898961e+01 8.971610637626262985e+01 4.126313920454545325e+01
4.979423137626262275e+01 8.973236268939393767e+01 4.127718592171716949e+01
4.975536616161615910e+01 8.976846590909090651e+01 4.129466540404040131e+01
4.975741792929292728e+01 8.977020202020202078e+01 4.127872474747474740e+01
4.978109217171716949e+01 8.980271464646465063e+01 4.126562500000000000e+01
4.978957544191919027e+01 8.980157039141414543e+01 4.126605902777777857e+01
4.975552398989898961e+01 8.983238636363635976e+01 4.127446338383838054e+01
4.979340277777777857e+01 8.986174242424242209e+01 4.127162247474747403e+01
4.981328914141413833e+01 8.988226010101010388e+01 4.128109217171716949e+01
4.980725220959595845e+01 8.991741635101010388e+01 4.129888731060606233e+01
4.982488952020202078e+01 8.994483901515151558e+01 4.129442866161615910e+01
4.987878787878787534e+01 8.998121843434343248e+01 4.131581439393939092e+01
4.982638888888888573e+01 9.003929924242424931e+01 4.132165404040404155e+01
4.984544665404040131e+01 9.003089488636364024e+01 4.128152619949494806e+01
4.968907828282828376e+01 8.983869949494949481e+01 4.103882575757575779e+01
4.960148358585858830e+01 8.964962121212121815e+01 4.091824494949494806e+01
4.958147885101010388e+01 8.956727430555555713e+01 4.093233112373737725e+01
4.958463541666666430e+01 8.953065814393939092e+01 4.102797506313131493e+01
4.960901988636363313e+01 8.951306029040404155e+01 4.109118529040404155e+01
4.964030934343434609e+01 8.947711489898989612e+01 4.111773989898989612e+01
4.956845801767676818e+01 8.943304135101010388e+01 4.114689867424242209e+01
4.959958964646464352e+01 8.940751262626262985e+01 4.116745580808080973e+01
4.958214962121212466e+01 8.937492108585858830e+01 4.118978851010101039e+01
4.957413983585858830e+01 8.935823074494949481e+01 4.118446180555555713e+01
4.953756313131312794e+01 8.931739267676768179e+01 4.117566287878787534e+01
4.953278882575757791e+01 8.930425347222222854e+01 4.119393150252525260e+01
4.958372790404040131e+01 8.929158775252524549e+01 4.123997790404040131e+01
4.952923768939393767e+01 8.928192077020202078e+01 4.123725536616161946e+01
4.953203914141413833e+01 8.931518308080808310e+01 4.128330176767676818e+01
4.957453440656565391e+01 8.934978693181818699e+01 4.131601167929292728e+01
4.962204071969696884e+01 8.938324652777777146e+01 4.133037405303030454e+01
4.963320707070707272e+01 8.940593434343433898e+01 4.131755050505050519e+01
4.963214172979797922e+01 8.944937657828282340e+01 4.133905460858586167e+01
4.965415877525252597e+01 8.946050347222222854e+01 4.133692392676767469e+01
4.968860479797979934e+01 8.947017045454545325e+01 4.133017676767676818e+01
4.968000315656565391e+01 8.949376578282827666e+01 4.132173295454545325e+01
4.967578125000000000e+01 8.951984690656566102e+01 4.131845801767676818e+01
4.969491792929292728e+01 8.955508207070707272e+01 4.132149621212121104e+01
4.968955176767676818e+01 8.959264520202020776e+01 4.130303030303030454e+01
4.971847380050505194e+01 8.961209753787878185e+01 4.129943970959595845e+01
4.972778566919191690e+01 8.967223011363635976e+01 4.132721748737373701e+01
4.976452020202020066e+01 8.972238005050505194e+01 4.135448232323232531e+01
4.980172821969696884e+01 8.977410827020202078e+01 4.136627998737373701e+01
4.975359059343434609e+01 8.977426609848484418e+01 4.128168402777777857e+01
4.960424558080808310e+01 8.958641098484848442e+01 4.106384154040404155e+01
4.952260890151514872e+01 8.940123895202020776e+01 4.095868844696969546e+01
4.951025883838384090e+01 8.935984848484848442e+01 4.099810606060606233e+01
4.953618213383838054e+01 8.933637152777777146e+01 4.107516571969696884e+01
4.952868529040404155e+01 8.933755523989898961e+01 4.112290877525252597e+01
4.955488478535353636e+01 8.933550347222222854e+01 4.114847695707070585e+01
4.951889993686868507e+01 8.931088226010101039e+01 4.114532039141413833e+01
4.954794034090909349e+01 8.931403882575757791e+01 4.118067392676767469e+01
4.955989583333333570e+01 8.930831755050505194e+01 4.118947285353535648e+01
4.955859375000000000e+01 8.928318339646465063e+01 4.118454071969696884e+01
4.950800978535353636e+01 8.927300347222222854e+01 4.118035827020202078e+01
4.956265782828283051e+01 8.925441919191919737e+01 4.118529040404040131e+01
4.950958806818182012e+01 8.924412089646465063e+01 4.120182291666666430e+01
4.957413983585858830e+01 8.927300347222222854e+01 4.123354640151514872e+01
4.953022411616161946e+01 8.930421401515151558e+01 4.124455492424242209e+01
4.959098800505050519e+01 8.933404356060606233e+01 4.127107007575757791e+01
4.958183396464646364e+01 8.933420138888888573e+01 4.126002209595959869e+01
4.958447758838384090e+01 8.937456597222222854e+01 4.129470486111111427e+01
4.960175978535353636e+01 8.938995422979797922e+01 4.127947443181817988e+01
4.963332544191919027e+01 8.945150726010101039e+01 4.129762468434343248e+01
4.963095801767676818e+01 8.947739109848484418e+01 4.129431029040404155e+01
4.966662720959595845e+01 8.948370422979797922e+01 4.128531407828283051e+01
4.965041035353535648e+01 8.950662878787878185e+01 4.128409090909090651e+01
4.970292771464646364e+01 8.954146938131313505e+01 4.128720801767676818e+01
4.967033617424242209e+01 8.958668718434343248e+01 4.127466066919191690e+01
4.968315972222222143e+01 8.961213699494949481e+01 4.129000946969696884e+01
4.973745265151514872e+01 8.966911300505050519e+01 4.130405618686868507e+01
4.977541035353535648e+01 8.971085858585858830e+01 4.130508207070707272e+01
4.968276515151514872e+01 8.969239267676768179e+01 4.123169191919191690e+01
4.959043560606060908e+01 8.950299873737374412e+01 4.100126262626262275e+01
4.949664614898989612e+01 8.937559185606060908e+01 4.093698705808080973e+01
4.951937342171716949e+01 8.932619160353534937e+01 4.098007417929292728e+01
4.952126736111111427e+01 8.931040877525252597e+01 4.104651988636363313e+01
4.956506470959595845e+01 8.931995738636364024e+01 4.111556976010101039e+01
4.953215751262626299e+01 8.930851483585858830e+01 4.113080018939393767e+01
4.957417929292929415e+01 8.930902777777777146e+01 4.117140151515151558e+01
4.955969854797979934e+01 8.934205334595959869e+01 4.119369476010101039e+01
4.956384154040404155e+01 8.932425820707071296e+01 4.117447916666666430e+01
4.953574810606060908e+01 8.927122790404040131e+01 4.116279987373737725e+01
4.954813762626262275e+01 8.924921085858585457e+01 4.116208964646464352e+01
4.953768150252525260e+01 8.924380523989898961e+01 4.118067392676767469e+01
4.954632260101010388e+01 8.924913194444444287e+01 4.119278724747474740e+01
4.954679608585858830e+01 8.928622159090909349e+01 4.122561553030303116e+01
4.955500315656565391e+01 8.930184659090909349e+01 4.125102588383838054e+01
4.956324968434343248e+01 8.931530145202020776e+01 4.125927241161615910e+01
4.957129892676767469e+01 8.935428503787878185e+01 4.123401988636363313e+01
4.960392992424242209e+01 8.939054608585858830e+01 4.126175820707070585e+01
4.960862531565656752e+01 8.940344854797979224e+01 4.125635258838384090e+01
4.962275094696969546e+01 8.944109059343433898e+01 4.127079387626262275e+01
4.961174242424242209e+01 8.946117424242424931e+01 4.126799242424242209e+01
4.966133996212121104e+01 8.949877683080808310e+01 4.126866319444444287e+01
4.966927083333333570e+01 8.951191603535353636e+01 4.127312184343434609e+01
4.965360637626262275e+01 8.953870738636364024e+01 4.127418718434343248e+01
4.967751736111111427e+01 8.958502998737374412e+01 4.127505523989898961e+01
4.969160353535353636e+01 8.965277777777777146e+01 4.127746212121212466e+01
4.973484848484848442e+01 8.967708333333332860e+01 4.128251262626262275e+01
4.968667140151514872e+01 8.962559185606060908e+01 4.116126104797979934e+01
4.952450284090909349e+01 8.942522885101010388e+01 4.095127051767676818e+01
4.941954703282828376e+01 8.923993844696970257e+01 4.088103693181817988e+01
4.946081912878787534e+01 8.917657039141414543e+01 4.095229640151514872e+01
4.944361584595959869e+01 8.914200599747475451e+01 4.103878630050505194e+01
4.949573863636363313e+01 8.913762626262625588e+01 4.110464015151514872e+01
4.947064393939393767e+01 8.911174242424242209e+01 4.113667929292929415e+01
4.949885574494949481e+01 8.906830018939393767e+01 4.116552241161615910e+01
4.942814867424242209e+01 8.898654513888888573e+01 4.116710069444444287e+01
4.944487847222222143e+01 8.898259943181818699e+01 4.120119160353535648e+01
4.943485637626262275e+01 8.893122632575757791e+01 4.119622001262626299e+01
4.941216856060606233e+01 8.890490845959595845e+01 4.120430871212121104e+01
4.937839330808080973e+01 8.886766098484848442e+01 4.122577335858586167e+01
4.942783301767676818e+01 8.887764362373737015e+01 4.125406407828283051e+01
4.943895991161615910e+01 8.888372001262625588e+01 4.128681344696969546e+01
4.944586489898989612e+01 8.889441287878787534e+01 4.130129419191919027e+01
4.944783775252525260e+01 8.891153724747475451e+01 4.133404356060606233e+01
4.945900410353535648e+01 8.893532986111111427e+01 4.135089172979797922e+01
4.945600536616161946e+01 8.893753945707071296e+01 4.134631470959595845e+01
4.946433080808080973e+01 8.897206439393939092e+01 4.136016414141413833e+01
4.943256786616161946e+01 8.898985953282827666e+01 4.134528882575757791e+01
4.949751420454545325e+01 8.901235006313130782e+01 4.136257102272727337e+01
4.952379261363636687e+01 8.904951862373737015e+01 4.136848958333333570e+01
4.953207859848485128e+01 8.906269728535353636e+01 4.137645991161615910e+01
4.951278409090909349e+01 8.910811237373737015e+01 4.139109848484848442e+01
4.954312657828283051e+01 8.913671875000000000e+01 4.137440814393939092e+01
4.956273674242424221e+01 8.918600063131313505e+01 4.141374684343434609e+01
4.962282986111111427e+01 8.924640940656566102e+01 4.143296243686868507e+01
4.962535511363636687e+01 8.928428819444444287e+01 4.143469854797979934e+01
4.961249210858586167e+01 8.926921559343433898e+01 4.136659564393939092e+01
4.941717960858586167e+01 8.908384627525252597e+01 4.113829703282828376e+01
4.929257417929292728e+01 8.885254892676768179e+01 4.102079387626262275e+01
4.925564236111111427e+01 8.871050347222222854e+01 4.105930397727272663e+01
4.927075441919191690e+01 8.860945391414141170e+01 4.116216856060606233e+01
4.929300820707070585e+01 8.854932133838383379e+01 4.124250315656565391e+01
4.926412563131312794e+01 8.849329229797979224e+01 4.127485795454545325e+01
4.926471748737373701e+01 8.843075284090909349e+01 4.129628314393939092e+01
4.924672506313131493e+01 8.838592960858585457e+01 4.133731849747474740e+01
4.923327020202020066e+01 8.835621843434343248e+01 4.137263257575757791e+01
4.921886837121212466e+01 8.828405145202020776e+01 4.138679766414141170e+01
4.919491792929292728e+01 8.823895202020202078e+01 4.141224747474747403e+01
4.919894255050505194e+01 8.818805239898989612e+01 4.143410669191919027e+01
4.919065656565656752e+01 8.816208964646465063e+01 4.144886363636363313e+01
4.920541351010101039e+01 8.815617108585858830e+01 4.148287563131312794e+01
4.918434343434343248e+01 8.816398358585858830e+01 4.153077651515151558e+01
4.922435290404040131e+01 8.816958648989898961e+01 4.155310921717171624e+01
4.922620738636363313e+01 8.817822758838383379e+01 4.156459122474747403e+01
4.926408617424242209e+01 8.821326546717172334e+01 4.157358743686868507e+01
4.927434501262626299e+01 8.822825915404040131e+01 4.155701546717171624e+01
4.926720328282828376e+01 8.824921085858585457e+01 4.157938762626262275e+01
4.926373106060606233e+01 8.828551136363635976e+01 4.158506944444444287e+01
4.924218750000000000e+01 8.831826073232323893e+01 4.153196022727272663e+01
4.928511679292929415e+01 8.833372790404040131e+01 4.156873421717171624e+01
4.929423137626262275e+01 8.837582859848484418e+01 4.158258364898989612e+01
4.930038667929292728e+01 8.839792455808080263e+01 4.159110637626262275e+01
4.938758680555555713e+01 8.846460700757575069e+01 4.161044034090909349e+01
4.934098800505050519e+01 8.850623421717172334e+01 4.161119002525252597e+01
4.941343118686868507e+01 8.855989583333332860e+01 4.162902462121212466e+01
4.940743371212121104e+01 8.860187815656566102e+01 4.163297032828283051e+01
4.942148042929292728e+01 8.865948547979797922e+01 4.162255366161615910e+01
4.938403566919191690e+01 8.866607481060606233e+01 4.158068970959595845e+01
4.925765467171716949e+01 8.844515467171717660e+01 4.132552083333333570e+01
4.906459122474747403e+01 8.817175662878787534e+01 4.119416824494949481e+01
4.907090435606060908e+01 8.802797506313130782e+01 4.126866319444444287e+01
4.905555555555555713e+01 8.793655303030303116e+01 4.137768308080808310e+01
4.906897095959595845e+01 8.789962121212121815e+01 4.143828914141413833e+01
4.906356534090909349e+01 8.785175978535353636e+01 4.145766256313131493e+01
4.903306502525252597e+01 8.780405618686869218e+01 4.150670770202020066e+01
4.901357323232323182e+01 8.775520833333332860e+01 4.154056186868687206e+01
4.903168402777777857e+01 8.773591382575757791e+01 4.155078125000000000e+01
4.902324021464646364e+01 8.769511521464646364e+01 4.157926925505050519e+01
4.903606376262626299e+01 8.766264204545454675e+01 4.159382891414141170e+01
4.903941761363636687e+01 8.762022569444444287e+01 4.160870422979797922e+01
4.900789141414141170e+01 8.759327651515151558e+01 4.163368055555555713e+01
4.898567708333333570e+01 8.759363162878787534e+01 4.166812657828283051e+01
4.903839172979797922e+01 8.761493844696970257e+01 4.169700915404040131e+01
4.903476167929292728e+01 8.763877051767676107e+01 4.170379577020202078e+01
4.908877840909090651e+01 8.765916982323231821e+01 4.171330492424242209e+01
4.907994002525252597e+01 8.769878472222222854e+01 4.170572916666666430e+01
4.909272411616161946e+01 8.772593118686869218e+01 4.172577335858586167e+01
4.909599905303030454e+01 8.774167455808080263e+01 4.172178819444444287e+01
4.912870896464646364e+01 8.777043876262625588e+01 4.172766729797979934e+01
4.909560448232323182e+01 8.783944917929292728e+01 4.170766256313131493e+01
4.915380366161615910e+01 8.788660037878787534e+01 4.174834280303030454e+01
4.914342645202020066e+01 8.793430397727273373e+01 4.176448074494949481e+01
4.915597380050505194e+01 8.797478693181818699e+01 4.177166193181817988e+01
4.919310290404040131e+01 8.801822916666667140e+01 4.176775568181817988e+01
4.921413352272727337e+01 8.807698074494949481e+01 4.178705018939393767e+01
4.924439709595959869e+01 8.811860795454545325e+01 4.178022411616161946e+01
4.927647569444444287e+01 8.817546559343433898e+01 4.179683554292929415e+01
4.928839172979797922e+01 8.824830334595959869e+01 4.179738794191919027e+01
4.930938289141413833e+01 8.825224905303029743e+01 4.171405460858586167e+01
4.908439867424242209e+01 8.802505523989898961e+01 4.147597064393939092e+01
4.898615056818182012e+01 8.778570864898989612e+01 4.138687657828283051e+01
4.897849589646464352e+01 8.765179135101010388e+01 4.145213857323232531e+01
4.901120580808080973e+01 8.761710858585858830e+01 4.154135101010101039e+01
4.898255997474747403e+01 8.760140467171717660e+01 4.161024305555555713e+01
4.900098642676767469e+01 8.758416193181818699e+01 4.164382102272727337e+01
4.901818970959595845e+01 8.757137784090909349e+01 4.167917455808080973e+01
4.897900883838384090e+01 8.752698863636364024e+01 4.167613636363636687e+01
4.900548453282828376e+01 8.753105271464646364e+01 4.167578125000000000e+01
