5.025958806818182012e+01 6.344172190656565391e+01 6.638679766414141170e+01
5.025430082070707272e+01 6.356238162878787534e+01 6.643627683080808310e+01
5.022806186868687206e+01 6.363667929292929415e+01 6.645517676767676107e+01
5.036777935606060908e+01 6.378050031565656752e+01 6.657043087121212466e+01
5.050552398989898961e+01 6.385321969696969546e+01 6.665546085858585457e+01
5.056111900252525260e+01 6.398046875000000000e+01 6.665060763888888573e+01
5.063174715909090651e+01 6.409150094696970257e+01 6.673701862373737015e+01
5.060408775252525260e+01 6.421677714646465063e+01 6.679095643939393767e+01
5.077789614898989612e+01 6.433881786616161946e+01 6.687780145202020776e+01
5.076736111111111427e+01 6.447348484848484418e+01 6.692708333333332860e+01
5.081226325757575779e+01 6.460424558080808310e+01 6.697435290404040131e+01
5.081987847222222143e+01 6.459086963383838054e+01 6.694456281565656752e+01
5.054774305555555713e+01 6.419420770202020776e+01 6.663802083333332860e+01
5.021768465909090651e+01 6.359962910353535648e+01 6.628160511363635976e+01
5.008175505050505194e+01 6.325489267676767469e+01 6.613052398989898961e+01
5.007670454545454675e+01 6.309138257575757791e+01 6.610479797979797922e+01
5.005823863636363313e+01 6.304087752525252597e+01 6.608617424242424931e+01
5.011205808080808310e+01 6.306770833333333570e+01 6.614125631313130782e+01
5.011991003787878896e+01 6.309086963383838054e+01 6.614200599747475451e+01
5.019696969696969546e+01 6.320249368686868507e+01 6.624621212121212466e+01
5.021492266414141170e+01 6.328894412878787534e+01 6.626747948232323893e+01
5.020229640151514872e+01 6.325879892676767469e+01 6.624885574494949481e+01
5.018627683080808310e+01 6.328239425505050519e+01 6.625351167929292728e+01
5.021867108585858830e+01 6.330105744949494806e+01 6.626586174242424931e+01
5.024905303030303116e+01 6.338446969696969546e+01 6.633491161616161946e+01
5.033940972222222143e+01 6.349171401515151558e+01 6.641216856060606233e+01
5.036927872474747403e+01 6.360302241161615910e+01 6.647818023989898961e+01
5.048958333333333570e+01 6.373989898989898961e+01 6.657559974747475451e+01
5.048255997474747403e+01 6.383925189393939092e+01 6.662571022727273373e+01
5.057477114898989612e+01 6.399064867424242209e+01 6.670766256313130782e+01
5.061320233585858830e+01 6.411083491161616621e+01 6.676929450757575069e+01
5.026680871212121104e+01 6.390269886363636687e+01 6.651302083333332860e+01
5.032729640151514872e+01 6.399491003787878896e+01 6.661138731060606233e+01
5.037002840909090651e+01 6.406084280303029743e+01 6.664433396464646364e+01
5.044479955808080973e+01 6.424214804292928704e+01 6.676108743686869218e+01
5.051124526515151558e+01 6.435546875000000000e+01 6.682800662878787534e+01
5.049443655303030454e+01 6.448196811868686495e+01 6.685712594696970257e+01
5.059446022727272663e+01 6.461592487373737015e+01 6.691753472222222854e+01
5.071906565656565391e+01 6.479577020202020776e+01 6.702146464646465063e+01
5.081328914141413833e+01 6.494049873737374412e+01 6.710243055555555713e+01
5.080658143939393767e+01 6.504853219696970257e+01 6.713454861111111427e+01
5.088790246212121104e+01 6.525043402777777146e+01 6.723212594696970257e+01
5.093284406565656752e+01 6.535598169191919737e+01 6.726538825757575069e+01
5.088663983585858830e+01 6.530520044191919737e+01 6.721729008838383379e+01
5.052568655303030454e+01 6.472581281565656752e+01 6.679588857323231821e+01
5.020545296717171624e+01 6.394850852272727337e+01 6.636217645202020776e+01
4.997656250000000000e+01 6.344862689393939092e+01 6.616074810606060908e+01
4.991623263888888573e+01 6.323110006313131493e+01 6.610294349747475451e+01
4.990565814393939092e+01 6.313372001262626299e+01 6.609536773989898961e+01
4.988190498737373701e+01 6.302363478535353636e+01 6.605362215909090651e+01
4.977292455808080973e+01 6.288498263888888573e+01 6.597194602272726627e+01
4.983167613636363313e+01 6.289764835858586167e+01 6.600954861111111427e+01
4.984887941919191690e+01 6.293300189393939092e+01 6.603085542929292728e+01
4.988869160353535648e+01 6.298417771464646364e+01 6.607871685606060908e+01
4.987855113636363313e+01 6.298161300505050519e+01 6.605768623737374412e+01
4.989129577020202078e+01 6.298962279040404155e+01 6.605575284090909349e+01
4.988229955808080973e+01 6.300966698232323182e+01 6.607974273989898961e+01
4.992929292929292728e+01 6.306328914141413833e+01 6.612310606060606233e+01
4.998650568181817988e+01 6.322829861111111427e+01 6.622577335858585457e+01
5.001530934343434609e+01 6.330492424242424221e+01 6.626751893939393767e+01
5.008960700757575779e+01 6.340905145202020066e+01 6.634955018939393767e+01
5.015285669191919027e+01 6.352359532828283051e+01 6.639607007575757791e+01
5.016378630050505194e+01 6.366347064393939092e+01 6.645466382575757791e+01
5.024936868686868507e+01 6.375678661616161946e+01 6.655113636363635976e+01
5.026964962121212466e+01 6.384856376262626299e+01 6.658546401515151558e+01
5.033317550505050519e+01 6.397916666666666430e+01 6.670028409090909349e+01
5.040613162878787534e+01 6.413387784090909349e+01 6.677718592171717660e+01
5.046212121212121104e+01 6.424510732323231821e+01 6.683743686868686495e+01
5.050209122474747403e+01 6.433431976010101039e+01 6.689176925505050519e+01
5.037208017676767469e+01 6.415096275252524549e+01 6.670288825757575069e+01
5.006104008838384090e+01 6.355662089646464352e+01 6.630819917929292728e+01
4.981510416666666430e+01 6.305658143939393767e+01 6.603274936868686495e+01
4.972305082070707272e+01 6.281932607323232531e+01 6.596010890151515582e+01
4.973729482323232531e+01 6.271220012626262275e+01 6.594010416666667140e+01
4.975678661616161946e+01 6.270596590909090651e+01 6.595817550505050519e+01
4.974321338383838054e+01 6.267676767676767469e+01 6.593813131313130782e+01
4.978578756313131493e+01 6.274459438131312794e+01 6.600201231060606233e+01
4.980744949494949481e+01 6.282765151515151558e+01 6.606660353535353636e+01
4.978551136363636687e+01 6.286284722222222143e+01 6.605950126262625588e+01
4.984477588383838054e+01 6.292826704545454675e+01 6.608862058080808310e+01
4.983668718434343248e+01 6.292554450757575779e+01 6.609015940656566102e+01
4.990056818181817988e+01 6.298595328282828376e+01 6.613541666666667140e+01
4.994669349747474740e+01 6.307879577020202078e+01 6.619764046717172334e+01
5.002438446969696884e+01 6.320888573232323182e+01 6.628922032828282340e+01
5.011158459595959869e+01 6.335306186868687206e+01 6.639614898989898961e+01
5.012042297979797922e+01 6.343781565656565391e+01 6.643181818181818699e+01
5.022451073232323182e+01 6.363123421717171624e+01 6.655642361111111427e+01
5.026061395202020066e+01 6.372825915404040131e+01 6.660199652777777146e+01
5.031987847222222143e+01 6.390826231060606233e+01 6.672991635101010388e+01
5.038194444444444287e+01 6.397111742424242209e+01 6.674384469696970257e+01
5.043402777777777857e+01 6.411884469696970257e+01 6.685495580808080263e+01
5.051160037878787534e+01 6.425181502525252597e+01 6.692732007575757791e+01
5.058759469696969546e+01 6.436931818181818699e+01 6.698358585858585457e+01
5.063557449494949481e+01 6.454277146464646364e+01 6.703977272727273373e+01
5.064599116161615910e+01 6.466256313131313505e+01 6.713667929292928704e+01
5.079344223484848442e+01 6.483053188131313505e+01 6.725035511363635976e+01
5.083660827020202078e+01 6.493935448232323893e+01 6.731782670454545325e+01
5.093864425505050519e+01 6.512819602272726627e+01 6.740439551767676107e+01
5.092806976010101039e+01 6.524041193181818699e+01 6.744258996212121815e+01
5.098141571969696884e+01 6.538087910353534937e+01 6.748488794191919737e+01
5.107840119949494806e+01 6.559592013888888573e+01 6.761627998737374412e+01
5.113340435606060908e+01 6.567002051767676107e+01 6.761714804292928704e+01
5.100264362373737725e+01 6.556309185606060908e+01 6.747391887626262985e+01
5.062744633838384090e+01 6.491327335858585457e+01 6.707236426767676107e+01
5.037282986111111427e+01 6.438829703282827666e+01 6.680622632575757791e+01
5.033956755050505194e+01 6.413754734848484418e+01 6.672403724747475451e+01
5.037910353535353636e+01 6.408301767676768179e+01 6.674636994949494806e+01
5.034375000000000000e+01 6.405082070707071296e+01 6.676499368686869218e+01
5.036916035353535648e+01 6.401452020202020776e+01 6.674968434343433898e+01
5.036919981060606233e+01 6.404691445707071296e+01 6.678318339646465063e+01
5.036805555555555713e+01 6.410353535353534937e+01 6.686174242424242209e+01
5.046255523989898961e+01 6.414547821969696884e+01 6.689011205808080263e+01
5.041066919191919027e+01 6.413683712121212466e+01 6.684927398989898961e+01
5.040352746212121104e+01 6.413853377525252597e+01 6.685049715909090651e+01
5.046697443181817988e+01 6.417136205808080263e+01 6.685239109848484418e+01
5.048338857323232531e+01 6.423717645202020776e+01 6.692262468434343248e+01
5.052683080808080973e+01 6.431960227272726627e+01 6.697632575757575069e+01
5.058258364898989612e+01 6.445190183080808310e+01 6.703697127525252597e+01
5.064062500000000000e+01 6.456944444444444287e+01 6.712673611111111427e+01
5.066433869949494806e+01 6.465707859848484418e+01 6.712109375000000000e+01
5.077379261363636687e+01 6.481498579545454675e+01 6.726116635101010388e+01
5.079127209595959869e+01 6.489670138888888573e+01 6.726538825757575069e+01
5.085464015151514872e+01 6.503866792929292728e+01 6.735921717171717660e+01
5.089681976010101039e+01 6.513466698232323893e+01 6.739050662878787534e+01
5.089267676767676818e+01 6.524431818181818699e+01 6.739520202020202078e+01
5.090561868686868507e+01 6.524542297979797922e+01 6.738699494949494806e+01
5.063683712121212466e+01 6.487784090909090651e+01 6.713541666666667140e+01
5.045592645202020066e+01 6.440857796717172334e+01 6.688711332070707272e+01
5.031025094696969546e+01 6.410302241161616621e+01 6.672675978535353636e+01
5.038328598484848442e+01 6.404521780303029743e+01 6.676980744949494806e+01
5.035803345959595845e+01 6.403022411616161946e+01 6.678843118686869218e+01
5.038671875000000000e+01 6.403160511363635976e+01 6.681885258838383379e+01
5.042349273989898961e+01 6.410136521464646364e+01 6.686351799242424931e+01
5.044448390151514872e+01 6.420616319444444287e+01 6.691560132575757791e+01
5.049763257575757791e+01 6.426199494949494806e+01 6.694460227272726627e+01
5.047940340909090651e+01 6.427138573232323893e+01 6.694862689393939092e+01
5.050217013888888573e+01 6.430709438131313505e+01 6.698102114898989612e+01
5.051629577020202078e+01 6.433716066919191690e+01 6.697920612373737015e+01
5.061505681818182012e+01 6.442440025252524549e+01 6.704324494949494806e+01
5.070884627525252597e+01 6.460783617424242209e+01 6.715660511363635976e+01
5.070608428030303116e+01 6.467862215909090651e+01 6.719629892676768179e+01
5.078914141414141170e+01 6.483491161616161946e+01 6.731060606060606233e+01
5.078649779040404155e+01 6.493122632575757791e+01 6.732974273989898961e+01
5.091765309343434609e+01 6.508826546717172334e+01 6.744211647727273373e+01
5.093023989898989612e+01 6.518292297979797922e+01 6.749700126262625588e+01
5.097557607323232531e+01 6.535120738636364024e+01 6.754691445707071296e+01
5.104352114898989612e+01 6.545545296717172334e+01 6.760081281565656752e+01
5.107319286616161946e+01 6.555346433080808310e+01 6.763774463383838054e+01
5.117984532828283051e+01 6.571677714646465063e+01 6.770430871212121815e+01
5.123634785353535648e+01 6.585724431818181301e+01 6.775765467171717660e+01
5.128176294191919027e+01 6.598678188131313505e+01 6.780654198232323893e+01
5.135653409090909349e+01 6.614630681818181301e+01 6.790025252525252597e+01
5.136880523989898961e+01 6.623323074494949481e+01 6.793935448232323893e+01
5.148883364898989612e+01 6.642223011363635976e+01 6.801724273989898961e+01
5.147115688131312794e+01 6.646942077020202078e+01 6.801171875000000000e+01
5.124976325757575779e+01 6.614891098484848442e+01 6.775007891414141170e+01
5.086549084595959869e+01 6.545119160353534937e+01 6.733834438131313505e+01
5.067301925505050519e+01 6.487598642676768179e+01 6.715991950757575069e+01
5.059252683080808310e+01 6.459710385101010388e+01 6.711919981060606233e+01
5.053042140151514872e+01 6.441268150252524549e+01 6.703752367424242209e+01
5.051254734848485128e+01 6.433136047979797922e+01 6.703953598484848442e+01
5.043588226010101039e+01 6.413111584595959869e+01 6.692309816919191690e+01
5.045075757575757791e+01 6.413399621212121815e+01 6.696164772727273373e+01
5.049175347222222143e+01 6.416441761363635976e+01 6.698401988636364024e+01
5.051341540404040131e+01 6.421085858585858830e+01 6.700694444444444287e+01
5.052529198232323182e+01 6.421058238636364024e+01 6.699704071969696884e+01
5.048106060606060908e+01 6.420896464646465063e+01 6.698421717171717660e+01
5.049715909090909349e+01 6.424195075757575069e+01 6.701231060606060908e+01
5.056861584595959869e+01 6.429715119949494806e+01 6.705472695707071296e+01
5.062574968434343248e+01 6.443793402777777146e+01 6.712401357323231821e+01
5.067735953282828376e+01 6.454794034090909349e+01 6.721113478535353636e+01
5.069886363636363313e+01 6.462815656565656752e+01 6.725142045454545325e+01
5.078693181818182012e+01 6.476941287878787534e+01 6.734201388888888573e+01
5.083866003787878896e+01 6.487985321969696884e+01 6.739516256313130782e+01
5.087385574494949481e+01 6.501321811868686495e+01 6.746634311868686495e+01
5.088687657828283051e+01 6.509663036616161946e+01 6.749925031565656752e+01
5.097249842171716949e+01 6.524885574494949481e+01 6.759039614898989612e+01
5.104695391414141170e+01 6.535250946969696884e+01 6.763612689393939092e+01
5.111016414141413833e+01 6.551041666666667140e+01 6.773263888888888573e+01
5.116362847222222143e+01 6.562354008838383379e+01 6.777252998737374412e+01
5.102675189393939092e+01 6.551365214646465063e+01 6.764607007575757791e+01
5.072841698232323182e+01 6.494890309343433898e+01 6.729644097222222854e+01
5.041982323232323182e+01 6.438304924242424931e+01 6.696022727272726627e+01
5.039015151515151558e+01 6.409217171717172334e+01 6.691003787878787534e+01
5.036403093434343248e+01 6.394547032828283051e+01 6.686197916666667140e+01
5.034552556818182012e+01 6.386067708333333570e+01 6.682690183080808310e+01
5.034446022727272663e+01 6.375623421717171624e+01 6.681147411616161946e+01
5.036158459595959869e+01 6.377035984848485128e+01 6.682307449494949481e+01
5.040905145202020066e+01 6.387953756313131493e+01 6.690163352272726627e+01
5.043130523989898961e+01 6.394314236111111427e+01 6.692215119949494806e+01
5.044574652777777857e+01 6.399293718434343248e+01 6.695947758838383379e+01
5.044448390151514872e+01 6.400082859848484418e+01 6.695174400252524549e+01
5.049250315656565391e+01 6.406131628787878185e+01 6.699928977272726627e+01
5.051712436868687206e+01 6.413959911616161946e+01 6.704711174242424931e+01
5.058416193181817988e+01 6.427592329545454675e+01 6.714350536616161946e+01
5.067270359848485128e+01 6.441118213383838054e+01 6.722415561868686495e+01
5.075256470959595845e+01 6.455922506313130782e+01 6.730370107323231821e+01
5.082390309343434609e+01 6.472983743686869218e+01 6.743643465909090651e+01
5.086158459595959869e+01 6.483143939393939092e+01 6.746496212121212466e+01
5.092191445707070585e+01 6.500508996212121815e+01 6.756711647727273373e+01
5.095624210858586167e+01 6.510412720959595845e+01 6.763285195707071296e+01
5.109876104797979934e+01 6.526590119949494806e+01 6.772707544191919737e+01
5.110736268939393767e+01 6.536099273989898961e+01 6.775177556818181301e+01
5.117073074494949481e+01 6.550437973484848442e+01 6.785097064393939092e+01
5.120127051767676818e+01 6.566781092171717660e+01 6.794085385101010388e+01
5.127438446969696884e+01 6.578716856060606233e+01 6.796882891414141170e+01
5.137859059343434609e+01 6.595308554292928704e+01 6.803594539141414543e+01
5.143536931818182012e+01 6.609146148989898961e+01 6.813912563131313505e+01
5.153397253787878896e+01 6.627623895202020776e+01 6.821847380050505194e+01
5.158834438131312794e+01 6.641946811868686495e+01 6.827805397727273373e+01
5.158854166666666430e+01 6.653945707070707272e+01 6.831802398989898961e+01
5.169476010101010388e+01 6.673421717171717660e+01 6.841224747474747403e+01
5.172865372474747403e+01 6.681672190656566102e+01 6.841836332070707272e+01
5.182623106060606233e+01 6.700331439393939092e+01 6.852225378787878185e+01
5.191295770202020066e+01 6.714117739898989612e+01 6.856826073232323893e+01
5.190321180555555713e+01 6.722818023989898961e+01 6.859986584595959869e+01
5.164516256313131493e+01 6.686533301767676107e+01 6.830093907828282340e+01
5.126294191919191690e+01 6.607039141414141170e+01 6.781739267676768179e+01
5.105030776515151558e+01 6.560917771464646364e+01 6.770987215909090651e+01
5.098244160353535648e+01 6.534276357323231821e+01 6.765889362373737015e+01
5.101736111111111427e+01 6.530650252525252597e+01 6.768923611111111427e+01
5.099514678030303116e+01 6.523362531565656752e+01 6.766449652777777146e+01
5.099053030303030454e+01 6.521022727272726627e+01 6.765893308080808310e+01
5.102371369949494806e+01 6.521421243686869218e+01 6.768233112373737015e+01
5.105681818181817988e+01 6.529908459595959869e+01 6.774558080808080263e+01
5.109122474747474740e+01 6.533033459595959869e+01 6.777383207070707272e+01
5.101274463383838054e+01 6.530867266414141170e+01 6.773275726010101039e+01
5.101795296717171624e+01 6.530898832070707272e+01 6.773133680555555713e+01
5.104754577020202078e+01 6.535752051767676107e+01 6.774640940656566102e+01
5.110104955808080973e+01 6.545900410353534937e+01 6.781979955808080263e+01
5.115384311868687206e+01 6.555441130050505194e+01 6.783550347222222854e+01
5.122735164141413833e+01 6.572482638888888573e+01 6.795099431818181301e+01
5.131743213383838054e+01 6.585089172979797922e+01 6.803965435606060908e+01
5.134398674242424221e+01 6.596551452020202078e+01 6.805942234848484418e+01
5.141477272727272663e+01 6.608917297979797922e+01 6.812673611111111427e+01
5.141398358585858830e+01 6.618750000000000000e+01 6.813683712121212466e+01
5.150895675505050519e+01 6.634418402777777146e+01 6.819266887626262985e+01
5.157883522727272663e+01 6.644973169191919737e+01 6.827028093434343248e+01
5.163955965909090651e+01 6.658068970959595845e+01 6.832769097222222854e+01
5.169803503787878896e+01 6.675232796717172334e+01 6.839311079545454675e+01
5.174127998737373701e+01 6.685412720959595845e+01 6.840163352272726627e+01
5.171208175505050519e+01 6.687685448232323893e+01 6.837543402777777146e+01
5.142617582070707272e+01 6.646121369949494806e+01 6.809647253787878185e+01
5.122794349747474740e+01 6.594779829545454675e+01 6.784315814393939092e+01
5.109086963383838054e+01 6.560649463383838054e+01 6.773985953282827666e+01
5.106609059343434609e+01 6.548891256313130782e+01 6.774175347222222854e+01
5.111304450757575779e+01 6.551014046717172334e+01 6.776708491161616621e+01
5.111450441919191690e+01 6.554458648989898961e+01 6.779411300505050519e+01
5.112752525252525260e+01 6.561347853535353636e+01 6.785984848484848442e+01
5.116532512626262275e+01 6.569199810606060908e+01 6.789023042929292728e+01
5.122747001262626299e+01 6.576045612373737015e+01 6.789792455808080263e+01
5.123993844696969546e+01 6.576503314393939092e+01 6.792301925505050519e+01
5.121330492424242209e+01 6.575481376262625588e+01 6.788549558080808310e+01
5.123934659090909349e+01 6.577280618686869218e+01 6.790143623737374412e+01
5.125927241161615910e+01 6.584497316919191690e+01 6.793682922979797922e+01
5.130839646464646364e+01 6.595722853535353636e+01 6.797900883838383379e+01
5.135866477272727337e+01 6.606242108585858830e+01 6.799865845959595845e+01
5.144992897727272663e+01 6.623054766414141170e+01 6.809797190656566102e+01
5.149779040404040131e+01 6.636521464646465063e+01 6.816098484848484418e+01
5.150556344696969546e+01 6.643375157828282340e+01 6.816212910353534937e+01
5.157611268939393767e+01 6.659094854797979224e+01 6.825035511363635976e+01
5.164346590909090651e+01 6.668055555555555713e+01 6.828582702020202078e+01
5.170454545454545325e+01 6.679371843434343248e+01 6.834485479797979224e+01
5.175082859848485128e+01 6.691512784090909349e+01 6.836556976010101039e+01
5.177852746212121104e+01 6.705472695707071296e+01 6.843209438131313505e+01
5.185124684343434609e+01 6.720288825757575069e+01 6.848366477272726627e+01
5.188285195707070585e+01 6.729715119949494806e+01 6.852063604797979224e+01
5.194969223484848442e+01 6.741418087121212466e+01 6.860673137626262985e+01
5.197380050505050519e+01 6.751704545454545325e+01 6.864346590909090651e+01
5.204403409090909349e+01 6.768087121212121815e+01 6.875142045454545325e+01
5.212326388888888573e+01 6.780492424242424931e+01 6.880082070707071296e+01
5.208313604797979934e+01 6.776889993686869218e+01 6.875690498737374412e+01
5.175047348484848442e+01 6.732449494949494806e+01 6.839378156565656752e+01
5.146239741161615910e+01 6.666836332070707272e+01 6.802395044191919737e+01
5.126787405303030454e+01 6.624167455808080263e+01 6.786919981060606233e+01
5.125003945707070585e+01 6.604612531565656752e+01 6.783274147727273373e+01
5.126270517676767469e+01 6.602959280303029743e+01 6.787997159090909349e+01
5.126779513888888573e+01 6.601448074494949481e+01 6.788632417929292728e+01
5.120170454545454675e+01 6.596796085858585457e+01 6.786616161616161946e+01
5.127181976010101039e+01 6.602308238636364024e+01 6.790281723484848442e+01
5.127288510101010388e+01 6.606423611111111427e+01 6.793718434343433898e+01
5.127343750000000000e+01 6.606636679292928704e+01 6.793315972222222854e+01
5.125868055555555713e+01 6.603172348484848442e+01 6.789315025252524549e+01
5.132303503787878896e+01 6.603357796717172334e+01 6.792751736111111427e+01
5.133143939393939092e+01 6.609753787878787534e+01 6.793371212121212466e+01
5.137286931818182012e+01 6.618742108585858830e+01 6.800323547979797922e+01
5.140147569444444287e+01 6.628720801767676107e+01 6.803862847222222854e+01
5.148429608585858830e+01 6.639875315656566102e+01 6.807110164141414543e+01
5.154663825757575779e+01 6.653764204545454675e+01 6.815869633838383379e+01
5.156305239898989612e+01 6.662586805555555713e+01 6.816500946969696884e+01
5.160136521464646364e+01 6.674925031565656752e+01 6.822778566919191690e+01
5.166832386363636687e+01 6.683151830808080263e+01 6.824944760101010388e+01
5.172837752525252597e+01 6.694902146464646364e+01 6.831328914141414543e+01
5.179809816919191690e+01 6.708139993686869218e+01 6.840305397727273373e+01
5.176953125000000000e+01 6.712496054292928704e+01 6.838316761363635976e+01
5.162941919191919027e+01 6.687957702020202078e+01 6.820217803030303116e+01
5.121772411616161946e+01 6.625071022727273373e+01 6.780326704545454675e+01
5.106115845959595845e+01 6.571630366161616621e+01 6.760235164141414543e+01
5.093051609848485128e+01 6.540747316919191690e+01 6.752947443181818699e+01
5.091856060606060908e+01 6.531818181818181301e+01 6.754198232323231821e+01
5.092294034090909349e+01 6.524191130050505194e+01 6.753610321969696884e+01
5.089078282828283051e+01 6.518734217171717660e+01 6.749147727272726627e+01
5.093734217171716949e+01 6.523879419191919737e+01 6.755271464646465063e+01
5.095726799242424221e+01 6.528712910353534937e+01 6.757406092171717660e+01
5.096141098484848442e+01 6.532173295454545325e+01 6.760392992424242209e+01
5.097672032828283051e+01 6.529774305555555713e+01 6.756415719696970257e+01
5.098078440656565391e+01 6.532784880050505194e+01 6.760357481060606233e+01
5.101092960858586167e+01 6.534883996212121815e+01 6.760104955808080263e+01
5.103602430555555713e+01 6.543469854797979224e+01 6.765155460858585457e+01
5.113687657828283051e+01 6.557295612373737015e+01 6.773520359848484418e+01
5.111182133838384090e+01 6.569483901515151558e+01 6.777959280303029743e+01
5.124830334595959869e+01 6.586225536616161946e+01 6.788324652777777146e+01
5.127079387626262275e+01 6.597281407828282340e+01 6.789973958333332860e+01
5.135294349747474740e+01 6.615076546717172334e+01 6.798788667929292728e+01
5.138837594696969546e+01 6.622533933080808310e+01 6.800674715909090651e+01
5.145359848484848442e+01 6.632196969696970257e+01 6.804671717171717660e+01
5.151826862373737725e+01 6.646002998737374412e+01 6.810349589646465063e+01
5.155871212121212466e+01 6.659217171717172334e+01 6.814946338383838054e+01
5.166603535353535648e+01 6.674305555555555713e+01 6.825899621212121815e+01
5.167676767676767469e+01 6.683601641414141170e+01 6.824842171717172334e+01
5.175998263888888573e+01 6.701645359848484418e+01 6.837866950757575069e+01
5.176061395202020066e+01 6.712788036616161946e+01 6.841717960858585457e+01
5.189480744949494806e+01 6.731968118686869218e+01 6.853480113636364024e+01
5.197750946969696884e+01 6.744247159090909349e+01 6.859730113636364024e+01
5.195647885101010388e+01 6.754391571969696884e+01 6.863103693181818699e+01
5.203918087121212466e+01 6.769401041666667140e+01 6.873772885101010388e+01
5.204628314393939092e+01 6.780496369949494806e+01 6.875524779040404155e+01
5.207982165404040131e+01 6.793051609848484418e+01 6.879131155303029743e+01
5.205082070707070585e+01 6.784280303030303116e+01 6.874179292929292728e+01
5.163005050505050519e+01 6.714977904040404155e+01 6.821322601010101039e+01
5.124041193181817988e+01 6.631459122474747403e+01 6.774893465909090651e+01
5.097190656565656752e+01 6.570012626262625588e+01 6.755950126262625588e+01
5.091445707070707272e+01 6.542629419191919737e+01 6.755413510101010388e+01
5.090743371212121104e+01 6.528180239898989612e+01 6.751144255050505194e+01
5.088143150252525260e+01 6.517735953282827666e+01 6.747060448232323893e+01
5.086264993686868507e+01 6.506214488636364024e+01 6.741189236111111427e+01
5.084094854797979934e+01 6.505638415404040131e+01 6.744669349747475451e+01
5.085187815656565391e+01 6.507867739898989612e+01 6.746062184343433898e+01
5.083929135101010388e+01 6.506482796717172334e+01 6.743982796717172334e+01
5.083621369949494806e+01 6.506459122474747403e+01 6.743359375000000000e+01
5.082047032828283051e+01 6.504332386363635976e+01 6.740411931818181301e+01
5.088427241161615910e+01 6.507982165404040131e+01 6.744487847222222854e+01
5.091106376262626299e+01 6.514701704545454675e+01 6.748918876262625588e+01
5.095067866161615910e+01 6.529427083333332860e+01 6.758641098484848442e+01
5.099163510101010388e+01 6.541351010101010388e+01 6.765183080808080263e+01
5.104853219696969546e+01 6.548445391414141170e+01 6.768568497474747403e+01
5.114701704545454675e+01 6.566469381313130782e+01 6.781336805555555713e+01
5.118371212121212466e+01 6.575741792929292728e+01 6.783822601010101039e+01
5.125260416666666430e+01 6.591216856060606233e+01 6.790664457070707272e+01
5.131861584595959869e+01 6.600532670454545325e+01 6.793540877525252597e+01
5.136391256313131493e+01 6.616220801767676107e+01 6.800059185606060908e+01
5.142870107323232531e+01 6.626487531565656752e+01 6.804044349747475451e+01
5.147407670454545325e+01 6.642341382575757791e+01 6.809702493686869218e+01
5.154312657828283051e+01 6.656601167929292728e+01 6.818327809343433898e+01
5.157039141414141170e+01 6.662705176767676107e+01 6.820912247474747403e+01
5.142657039141413833e+01 6.645608428030303116e+01 6.806040877525252597e+01
5.099743529040404155e+01 6.564421559343433898e+01 6.757919034090909349e+01
5.074060921717171624e+01 6.497372159090909349e+01 6.726191603535353636e+01
5.055101799242424221e+01 6.456664299242424931e+01 6.711525410353534937e+01
5.054699337121212466e+01 6.445340119949494806e+01 6.708787089646465063e+01
5.056198705808080973e+01 6.442199337121212466e+01 6.709939236111111427e+01
5.054545454545454675e+01 6.436852904040404155e+01 6.706202651515151558e+01
5.059576231060606233e+01 6.445040246212121815e+01 6.715384311868686495e+01
5.064145359848485128e+01 6.450856218434343248e+01 6.718848642676768179e+01
5.067885890151514872e+01 6.458431976010101039e+01 6.724056976010101039e+01
5.069053819444444287e+01 6.458100536616161946e+01 6.721089804292928704e+01
5.066623263888888573e+01 6.459047506313130782e+01 6.719969223484848442e+01
5.069235321969696884e+01 6.463711332070707272e+01 6.725437973484848442e+01
5.073062657828283051e+01 6.470868844696970257e+01 6.730007102272726627e+01
5.087393465909090651e+01 6.491039299242424931e+01 6.744116950757575069e+01
5.088987531565656752e+01 6.499577809343433898e+01 6.748536142676768179e+01
5.094890309343434609e+01 6.514318970959595845e+01 6.758084753787878185e+01
5.099834280303030454e+01 6.533577967171717660e+01 6.762539457070707272e+01
5.106407828282828376e+01 6.542313762626262985e+01 6.770659722222222854e+01
5.114026988636363313e+01 6.560838857323231821e+01 6.779068023989898961e+01
5.121811868686868507e+01 6.576657196969696884e+01 6.786047979797979224e+01
5.123398042929292728e+01 6.589780618686869218e+01 6.792400568181818699e+01
5.133530618686868507e+01 6.604221906565656752e+01 6.801901830808080263e+01
5.143008207070707272e+01 6.618023989898989612e+01 6.807402146464646364e+01
5.149668560606060908e+01 6.632780934343433898e+01 6.812831439393939092e+01
5.154028566919191690e+01 6.647604955808080263e+01 6.822778566919191690e+01
5.165388257575757791e+01 6.665767045454545325e+01 6.830429292929292728e+01
5.172202493686868507e+01 6.683076862373737015e+01 6.837890625000000000e+01
5.180496369949494806e+01 6.698899147727273373e+01 6.844353693181818699e+01
5.184382891414141170e+01 6.714023042929292728e+01 6.851302083333332860e+01
5.186868686868687206e+01 6.725710227272726627e+01 6.856455176767676107e+01
5.197099905303030454e+01 6.742838541666667140e+01 6.865881470959595845e+01
5.200635258838384090e+01 6.755591066919191690e+01 6.870568970959595845e+01
5.203192077020202078e+01 6.764981849747475451e+01 6.872194602272726627e+01
5.171247632575757791e+01 6.717301925505050519e+01 6.834000157828282340e+01
5.129091698232323182e+01 6.630512152777777146e+01 6.786130839646465063e+01
5.095419034090909349e+01 6.559008049242424931e+01 6.755425347222222854e+01
5.084951073232323182e+01 6.527833017676768179e+01 6.748208648989898961e+01
5.090238320707070585e+01 6.516990214646465063e+01 6.748950441919191690e+01
5.089532039141413833e+01 6.513616635101010388e+01 6.749601483585858830e+01
5.086264993686868507e+01 6.518193655303029743e+01 6.753357796717172334e+01
5.091481218434343248e+01 6.523457228535353636e+01 6.753949652777777146e+01
5.102071496212121104e+01 6.533889678030303116e+01 6.760199652777777146e+01
5.095983270202020066e+01 6.532394255050505194e+01 6.758420138888888573e+01
5.095817550505050519e+01 6.528661616161616621e+01 6.753929924242424931e+01
5.093209438131312794e+01 6.524317392676768179e+01 6.754588857323231821e+01
5.093967013888888573e+01 6.526621685606060908e+01 6.752773832070707272e+01
5.097964015151514872e+01 6.539030934343433898e+01 6.761537247474747403e+01
5.099479166666666430e+01 6.546606691919191690e+01 6.766445707070707272e+01
5.108668718434343248e+01 6.562645991161616621e+01 6.775398516414141170e+01
5.120280934343434609e+01 6.577351641414141170e+01 6.782149621212121815e+01
5.121855271464646364e+01 6.591504892676768179e+01 6.784828756313130782e+01
5.135365372474747403e+01 6.605804135101010388e+01 6.793004261363635976e+01
5.134410511363636687e+01 6.616276041666667140e+01 6.796121369949494806e+01
5.143126578282828376e+01 6.626223169191919737e+01 6.801728219696970257e+01
5.143122632575757791e+01 6.635988794191919737e+01 6.804075915404040131e+01
5.155157039141413833e+01 6.652679135101010388e+01 6.814058554292928704e+01
5.155847537878787534e+01 6.664922664141414543e+01 6.821440972222222854e+01
5.159438131313131493e+01 6.670407196969696884e+01 6.819207702020202078e+01
5.133084753787878896e+01 6.634899779040404155e+01 6.793012152777777146e+01
5.094740372474747403e+01 6.556198705808080263e+01 6.748638731060606233e+01
5.072455018939393767e+01 6.502063604797979224e+01 6.725311710858585457e+01
5.062606534090909349e+01 6.469014362373737015e+01 6.712006786616161946e+01
5.062500000000000000e+01 6.465640782828282340e+01 6.714094065656566102e+01
5.061726641414141170e+01 6.465909090909090651e+01 6.714094065656566102e+01
5.061852904040404155e+01 6.471590909090909349e+01 6.720359848484848442e+01
5.078144728535353636e+01 6.488293087121212466e+01 6.732611268939393767e+01
5.074333175505050519e+01 6.496223958333332860e+01 6.733360953282827666e+01
5.080729166666666430e+01 6.497790404040404155e+01 6.731392045454545325e+01
5.070904356060606233e+01 6.493694760101010388e+01 6.726302083333332860e+01
5.077537089646464352e+01 6.499112215909090651e+01 6.730393781565656752e+01
5.079683554292929415e+01 6.502931660353534937e+01 6.734844539141414543e+01
5.089776672979797922e+01 6.517317708333332860e+01 6.744085385101010388e+01
5.094164299242424221e+01 6.530496369949494806e+01 6.753349905303029743e+01
5.100449810606060908e+01 6.543189709595959869e+01 6.756810290404040131e+01
5.107682291666666430e+01 6.564784564393939092e+01 6.766362847222222854e+01
5.114997632575757791e+01 6.574088541666667140e+01 6.772715435606060908e+01
5.123413825757575779e+01 6.593994633838383379e+01 6.780263573232323893e+01
5.129833491161615910e+01 6.605117582070707272e+01 6.783794981060606233e+01
5.132603377525252597e+01 6.621823705808080263e+01 6.789705650252524549e+01
5.136620107323232531e+01 6.631017203282827666e+01 6.794495738636364024e+01
5.146393623737373701e+01 6.646756628787878185e+01 6.801207386363635976e+01
5.154778251262626299e+01 6.660033933080808310e+01 6.809844539141414543e+01
5.154971590909090651e+01 6.671259469696970257e+01 6.814188762626262985e+01
5.167124368686868507e+01 6.689930555555555713e+01 6.826736111111111427e+01
5.165625000000000000e+01 6.701420454545454675e+01 6.826988636363635976e+01
5.177375315656565391e+01 6.718442234848484418e+01 6.839575441919191690e+01
5.181672190656565391e+01 6.730504261363635976e+01 6.843730271464646364e+01
5.187997159090909349e+01 6.746867108585858830e+01 6.851949179292928704e+01
5.185684974747474740e+01 6.746953914141414543e+01 6.851309974747475451e+01
5.145821496212121104e+01 6.683384627525252597e+01 6.800903566919191690e+01
5.097245896464646364e+01 6.583451704545454675e+01 6.743647411616161946e+01
5.065250157828283051e+01 6.497352430555555713e+01 6.709505208333332860e+01
5.049427872474747403e+01 6.458061079545454675e+01 6.694109059343433898e+01
5.045016571969696884e+01 6.439113794191919737e+01 6.685531092171717660e+01
5.042956912878787534e+01 6.432335069444444287e+01 6.685854640151515582e+01
5.035752051767676818e+01 6.420237531565656752e+01 6.678760258838383379e+01
5.035748106060606233e+01 6.418197601010101039e+01 6.678977272727273373e+01
5.042144097222222143e+01 6.421421243686869218e+01 6.683179450757575069e+01
5.038269412878787534e+01 6.423023200757575069e+01 6.681340751262625588e+01
5.038967803030303116e+01 6.423200757575757791e+01 6.680634469696970257e+01
5.035006313131312794e+01 6.418623737373737015e+01 6.675615530303029743e+01
5.042175662878787534e+01 6.420947758838383379e+01 6.678997001262625588e+01
5.043998579545454675e+01 6.429825599747475451e+01 6.685665246212121815e+01
5.048883364898989612e+01 6.438892834595959869e+01 6.693091066919191690e+01
5.057990056818182012e+01 6.456569602272726627e+01 6.701692708333332860e+01
5.066406250000000000e+01 6.472230113636364024e+01 6.712744633838383379e+01
5.079786142676767469e+01 6.486509627525252597e+01 6.719543087121212466e+01
5.076412563131312794e+01 6.495462436868686495e+01 6.722924558080808310e+01
5.085546875000000000e+01 6.513498263888888573e+01 6.736304450757575069e+01
5.084947127525252597e+01 6.525824652777777146e+01 6.736430713383838054e+01
5.088218118686868507e+01 6.535661300505050519e+01 6.741706123737374412e+01
5.098693970959595845e+01 6.549704071969696884e+01 6.752055713383838054e+01
5.100434027777777857e+01 6.558262310606060908e+01 6.750986426767676107e+01
5.114137468434343248e+01 6.573622948232323893e+01 6.764026988636364024e+01
5.120565025252525260e+01 6.592313762626262985e+01 6.770549242424242209e+01
5.119945549242424221e+01 6.601021938131313505e+01 6.773007417929292728e+01
5.097644412878787534e+01 6.559260574494949481e+01 6.741741635101010388e+01
5.051384943181817988e+01 6.472660195707071296e+01 6.690021306818181301e+01
5.016157670454545325e+01 6.395371685606060908e+01 6.651400726010101039e+01
4.999640940656565391e+01 6.348615056818182012e+01 6.629502051767676107e+01
4.992396622474747403e+01 6.332200915404040131e+01 6.624467329545454675e+01
4.993189709595959869e+01 6.325307765151514872e+01 6.621772411616161946e+01
4.989240056818182012e+01 6.321342329545454675e+01 6.619479955808080263e+01
4.993446180555555713e+01 6.324964488636363313e+01 6.623907039141414543e+01
4.998263888888888573e+01 6.330792297979797922e+01 6.626846590909090651e+01
4.999708017676767469e+01 6.338028724747474740e+01 6.630989583333332860e+01
4.997092013888888573e+01 6.338790246212121104e+01 6.627442392676768179e+01
5.003637941919191690e+01 6.341485164141413833e+01 6.632236426767676107e+01
5.002150410353535648e+01 6.345995107323232531e+01 6.635688920454545325e+01
5.010708648989898961e+01 6.354869002525252597e+01 6.641832386363635976e+01
5.020509785353535648e+01 6.370288825757575779e+01 6.653290719696970257e+01
5.026104797979797922e+01 6.382970328282828376e+01 6.660811237373737015e+01
5.034055397727272663e+01 6.399727746212121104e+01 6.673338857323231821e+01
5.036983112373737725e+01 6.413372001262625588e+01 6.678949652777777146e+01
5.049463383838384090e+01 6.429845328282827666e+01 6.690767045454545325e+01
5.052434501262626299e+01 6.439760890151515582e+01 6.695142834595959869e+01
5.054194286616161946e+01 6.454115372474747403e+01 6.704036458333332860e+01
5.063466698232323182e+01 6.467664930555555713e+01 6.713529829545454675e+01
5.067365056818182012e+01 6.477276672979797922e+01 6.718312026515151558e+01
5.079221906565656752e+01 6.494515467171717660e+01 6.727643623737374412e+01
5.074554135101010388e+01 6.508139993686869218e+01 6.727710700757575069e+01
5.089247948232323182e+01 6.522786458333332860e+01 6.741931029040404155e+01
5.094381313131312794e+01 6.536773989898989612e+01 6.747837752525252597e+01
5.102825126262626299e+01 6.552162247474747403e+01 6.758791035353534937e+01
5.104801925505050519e+01 6.565660511363635976e+01 6.761083491161616621e+01
5.116800820707070585e+01 6.580310921717172334e+01 6.766990214646465063e+01
5.122806186868687206e+01 6.601120580808080263e+01 6.777446338383838054e+01
5.127833017676767469e+01 6.611182133838383379e+01 6.781321022727273373e+01
5.123110006313131493e+01 6.607769097222222854e+01 6.774246369949494806e+01
5.075366950757575779e+01 6.529628314393939092e+01 6.722778566919191690e+01
5.034252683080808310e+01 6.435562657828282340e+01 6.672668087121212466e+01
5.004782196969696884e+01 6.371669823232323182e+01 6.642282196969696884e+01
4.993501420454545325e+01 6.346279198232323182e+01 6.630228061868686495e+01
4.997762784090909349e+01 6.341212910353535648e+01 6.631474905303029743e+01
4.994416824494949481e+01 6.333510890151514872e+01 6.625666824494949481e+01
4.997944286616161946e+01 6.338001104797979934e+01 6.628594539141414543e+01
5.002402935606060908e+01 6.343627683080808310e+01 6.632769097222222854e+01
5.003397253787878896e+01 6.348772885101010388e+01 6.636509627525252597e+01
5.000532670454545325e+01 6.348354640151514872e+01 6.635270675505050519e+01
5.001463857323232531e+01 6.346034564393939092e+01 6.632792771464646364e+01
5.003835227272727337e+01 6.344365530303030454e+01 6.634359217171717660e+01
5.002856691919191690e+01 6.347064393939393767e+01 6.634548611111111427e+01
5.012357954545454675e+01 6.361268939393939092e+01 6.646543560606060908e+01
5.013656092171716949e+01 6.369511521464646364e+01 6.651455965909090651e+01
5.020067866161615910e+01 6.389149305555555713e+01 6.663107638888888573e+01
5.026049558080808310e+01 6.397577335858586167e+01 6.668884154040404155e+01
5.038012941919191690e+01 6.416122159090909349e+01 6.679774305555555713e+01
5.044333964646464352e+01 6.427509469696970257e+01 6.687894570707071296e+01
5.043678977272727337e+01 6.436119002525252597e+01 6.688297032828282340e+01
5.053247316919191690e+01 6.451116635101010388e+01 6.699901357323231821e+01
5.058514835858586167e+01 6.462949810606060908e+01 6.705011047979797922e+01
5.058893623737373701e+01 6.475497159090909349e+01 6.709177714646465063e+01
5.068134469696969546e+01 6.488462752525252597e+01 6.721243686868686495e+01
5.061071654040404155e+01 6.478858901515151558e+01 6.707015467171717660e+01
5.026720328282828376e+01 6.421543560606060908e+01 6.665861742424242209e+01
4.989350536616161946e+01 6.345300662878787534e+01 6.621894728535353636e+01
4.969740372474747403e+01 6.295639993686868507e+01 6.597265625000000000e+01
4.968536931818182012e+01 6.276175820707070585e+01 6.590759154040404155e+01
4.963529829545454675e+01 6.273930713383838054e+01 6.586935763888888573e+01
4.964859532828283051e+01 6.275386679292929415e+01 6.587981376262625588e+01
4.966556186868687206e+01 6.285290404040404155e+01 6.594270833333332860e+01
4.981616950757575779e+01 6.302576546717171624e+01 6.607279829545454675e+01
4.978645833333333570e+01 6.306770833333333570e+01 6.606928661616161946e+01
4.978851010101010388e+01 6.304324494949494806e+01 6.604008838383838054e+01
4.980906723484848442e+01 6.304360006313131493e+01 6.605622632575757791e+01
4.979221906565656752e+01 6.305326704545454675e+01 6.604916351010101039e+01
4.984248737373737725e+01 6.315751262626262275e+01 6.612973484848484418e+01
4.995296717171716949e+01 6.328835227272727337e+01 6.622869318181818699e+01
5.003630050505050519e+01 6.348311237373737725e+01 6.635164141414141170e+01
5.006758996212121104e+01 6.360720486111111427e+01 6.642254577020202078e+01
5.013908617424242209e+01 6.374404198232323182e+01 6.650840435606060908e+01
5.017321654040404155e+01 6.384966856060606233e+01 6.656526199494949481e+01
5.023453282828283051e+01 6.399116161616161946e+01 6.664804292929292728e+01
5.032524463383838054e+01 6.416394412878787534e+01 6.675153882575757791e+01
5.033341224747474740e+01 6.425654987373737015e+01 6.680705492424242209e+01
5.039449179292929415e+01 6.434951073232323893e+01 6.684114583333332860e+01
5.048745265151514872e+01 6.450639204545454675e+01 6.694073547979797922e+01
5.052284564393939092e+01 6.464563604797979224e+01 6.700074968434343248e+01
5.058960700757575779e+01 6.473102114898989612e+01 6.705141256313130782e+01
5.031743213383838054e+01 6.430086016414141170e+01 6.672178819444444287e+01
4.988001104797979934e+01 6.347076231060606233e+01 6.618619791666667140e+01
4.957019412878787534e+01 6.274096433080808310e+01 6.577710700757575069e+01
4.937255366161615910e+01 6.230658143939393767e+01 6.553401199494949481e+01
4.936264993686868507e+01 6.221602746212121104e+01 6.550374842171717660e+01
4.927631786616161946e+01 6.207761205808080973e+01 6.544345801767676107e+01
4.928282828282828376e+01 6.206392045454545325e+01 6.543150252525252597e+01
4.931802398989898961e+01 6.212279040404040131e+01 6.546006944444444287e+01
4.947348484848485128e+01 6.227162247474747403e+01 6.556344696969696884e+01
4.943237058080808310e+01 6.235187815656565391e+01 6.558514835858585457e+01
4.944491792929292728e+01 6.239078282828283051e+01 6.560116792929292728e+01
4.943726325757575779e+01 6.240475063131312794e+01 6.559067234848484418e+01
4.949313446969696884e+01 6.246646148989898961e+01 6.562855113636364024e+01
4.951893939393939092e+01 6.257717803030303116e+01 6.570170454545454675e+01
4.956762941919191690e+01 6.269278724747474740e+01 6.579221906565656752e+01
4.972230113636363313e+01 6.292163825757575779e+01 6.593158143939393767e+01
4.979853219696969546e+01 6.305737058080808310e+01 6.604679608585858830e+01
4.991343118686868507e+01 6.322482638888888573e+01 6.614780618686869218e+01
4.994645675505050519e+01 6.337780145202020066e+01 6.625201231060606233e+01
4.998003472222222143e+01 6.346930239898989612e+01 6.628338068181818699e+01
5.010980902777777857e+01 6.366583806818182012e+01 6.642025726010101039e+01
5.014973958333333570e+01 6.378247316919191690e+01 6.648764993686869218e+01
5.018675031565656752e+01 6.392002051767676818e+01 6.655827809343433898e+01
5.029146938131312794e+01 6.407019412878787534e+01 6.665037089646465063e+01
5.032733585858586167e+01 6.420075757575757791e+01 6.673279671717172334e+01
5.039232165404040131e+01 6.435996685606060908e+01 6.682776988636364024e+01
5.047265625000000000e+01 6.449096433080808310e+01 6.688064236111111427e+01
5.055918560606060908e+01 6.468765782828282340e+01 6.699416035353534937e+01
5.063589015151514872e+01 6.479687500000000000e+01 6.702146464646465063e+01
5.069152462121212466e+01 6.496519886363635976e+01 6.712886679292928704e+01
5.071792140151514872e+01 6.510428503787878185e+01 6.720292771464646364e+01
5.082492897727272663e+01 6.528941761363635976e+01 6.730251736111111427e+01
5.080547664141413833e+01 6.526712436868686495e+01 6.726949179292928704e+01
5.033652935606060908e+01 6.454202178030303116e+01 6.672699652777777146e+01
4.984446022727272663e+01 6.351428345959595845e+01 6.611845012626262985e+01
4.952276672979797922e+01 6.271121369949494806e+01 6.570426925505050519e+01
4.938589015151514872e+01 6.236474116161615910e+01 6.553772095959595845e+01
4.931328914141413833e+01 6.219554924242424221e+01 6.545091540404040131e+01
4.928594539141413833e+01 6.206104008838384090e+01 6.537148832070707272e+01
4.922668087121212466e+01 6.196642203282828376e+01 6.531348642676768179e+01
4.924514678030303116e+01 6.198551925505050519e+01 6.533353061868686495e+01
4.931005366161615910e+01 6.212097537878787534e+01 6.542700441919191690e+01
4.933684501262626299e+01 6.217712279040404155e+01 6.542980587121212466e+01
4.933384627525252597e+01 6.222210385101010388e+01 6.545158617424242209e+01
4.936695075757575779e+01 6.227619949494949481e+01 6.547395833333332860e+01
4.938612689393939092e+01 6.232930871212121104e+01 6.551396780303029743e+01
4.950007891414141170e+01 6.248224431818182012e+01 6.563912563131313505e+01
4.957867739898989612e+01 6.261276830808080973e+01 6.572403724747475451e+01
4.967487373737373701e+01 6.281439393939393767e+01 6.583680555555555713e+01
4.972261679292929415e+01 6.295730744949494806e+01 6.594199810606060908e+01
4.981999684343434609e+01 6.308704229797979934e+01 6.602801452020202078e+01
4.988498263888888573e+01 6.325540561868687206e+01 6.613892834595959869e+01
4.995340119949494806e+01 6.338758680555555713e+01 6.621902619949494806e+01
5.002032039141413833e+01 6.356388099747474740e+01 6.632066761363635976e+01
5.005011047979797922e+01 6.366437815656565391e+01 6.638675820707071296e+01
5.013817866161615910e+01 6.385471906565656752e+01 6.653053977272726627e+01
5.022017045454545325e+01 6.397443181818182012e+01 6.659974747474747403e+01
5.026787405303030454e+01 6.412835385101010388e+01 6.666370738636364024e+01
5.042092803030303116e+01 6.430397727272726627e+01 6.679513888888888573e+01
5.043809185606060908e+01 6.442088857323231821e+01 6.683834438131313505e+01
5.049984217171716949e+01 6.456107954545454675e+01 6.690214646464646364e+01
5.054545454545454675e+01 6.471212121212121815e+01 6.700836489898989612e+01
5.059165877525252597e+01 6.485128630050505194e+01 6.704825599747475451e+01
5.073930713383838054e+01 6.505354324494949481e+01 6.714461016414141170e+01
5.072024936868687206e+01 6.510819128787878185e+01 6.715822285353534937e+01
5.038616635101010388e+01 6.456403882575757791e+01 6.672312973484848442e+01
4.986249210858586167e+01 6.356119791666666430e+01 6.611359690656566102e+01
4.954462594696969546e+01 6.283424084595959869e+01 6.576653251262625588e+01
4.938936237373737725e+01 6.240104166666666430e+01 6.553093434343433898e+01
4.930212279040404155e+01 6.226108743686868507e+01 6.547841698232323893e+01
4.928764204545454675e+01 6.218016098484848442e+01 6.542116477272726627e+01
4.926515151515151558e+01 6.210258838383838054e+01 6.536852904040404155e+01
4.931573547979797922e+01 6.219184027777777857e+01 6.544089330808080263e+01
4.938589015151514872e+01 6.227840909090909349e+01 6.549068813131313505e+01
4.944440498737373701e+01 6.236817392676767469e+01 6.554367897727273373e+01
4.942712279040404155e+01 6.239618844696969546e+01 6.552829071969696884e+01
4.945580808080808310e+01 6.242897727272727337e+01 6.556565656565656752e+01
4.946156881313131493e+01 6.249565972222222143e+01 6.560345643939393767e+01
4.951747948232323182e+01 6.260191761363636687e+01 6.569219539141414543e+01
4.966169507575757791e+01 6.279348169191919027e+01 6.583246527777777146e+01
4.973082386363636687e+01 6.291958648989898961e+01 6.589622790404040131e+01
4.977963226010101039e+01 6.310838857323232531e+01 6.603862847222222854e+01
4.989101957070707272e+01 6.326886047979797922e+01 6.610834911616161946e+01
4.992420296717171624e+01 6.336517518939393767e+01 6.616331281565656752e+01
5.000418244949494806e+01 6.356810290404040131e+01 6.630768623737374412e+01
5.004312657828283051e+01 6.365202809343434609e+01 6.635783617424242209e+01
5.016599589646464352e+01 6.384244791666666430e+01 6.649080650252524549e+01
5.021468592171716949e+01 6.398488794191919027e+01 6.658037405303029743e+01
5.024021464646464352e+01 6.408585858585858830e+01 6.663241792929292728e+01
5.027197758838384090e+01 6.418122632575757791e+01 6.665187026515151558e+01
5.003377525252525260e+01 6.377193813131312794e+01 6.632812500000000000e+01
4.957891414141413833e+01 6.300505050505050519e+01 6.581581439393939092e+01
4.926633522727272663e+01 6.233167613636363313e+01 6.544641729797979224e+01
4.915234375000000000e+01 6.198536142676767469e+01 6.528649779040404155e+01
4.916497001262626299e+01 6.193753945707070585e+01 6.526929450757575069e+01
4.918473800505050519e+01 6.190743371212121104e+01 6.523603219696970257e+01
4.925398516414141170e+01 6.201692708333333570e+01 6.530464804292928704e+01
4.936399147727272663e+01 6.223567708333333570e+01 6.544969223484848442e+01
4.941994160353535648e+01 6.234071180555555713e+01 6.549932922979797922e+01
4.942511047979797922e+01 6.241279987373737725e+01 6.554079861111111427e+01
4.940269886363636687e+01 6.238486426767676818e+01 6.550781250000000000e+01
4.940948547979797922e+01 6.244326073232323182e+01 6.556036931818181301e+01
4.946385732323232531e+01 6.250094696969696884e+01 6.559280303030303116e+01
4.952789614898989612e+01 6.267120422979797922e+01 6.571839488636364024e+01
4.968134469696969546e+01 6.285748106060606233e+01 6.584848484848484418e+01
4.975860164141413833e+01 6.304316603535353636e+01 6.595178345959595845e+01
4.987389520202020066e+01 6.323137626262626299e+01 6.609453914141414543e+01
4.986399147727272663e+01 6.338419349747474740e+01 6.615928819444444287e+01
5.000848327020202078e+01 6.353957544191919027e+01 6.628184185606060908e+01
5.002000473484848442e+01 6.367783301767676818e+01 6.636833175505050519e+01
5.011864741161615910e+01 6.383266256313131493e+01 6.643635574494949481e+01
5.017483428030303116e+01 6.396145044191919027e+01 6.651116635101010388e+01
5.022983743686868507e+01 6.414129577020202078e+01 6.661809501262625588e+01
5.032796717171716949e+01 6.431755050505050519e+01 6.673279671717172334e+01
5.035969065656565391e+01 6.443892045454545325e+01 6.679797979797979224e+01
5.047269570707070585e+01 6.464756944444444287e+01 6.689251893939393767e+01
5.057110164141413833e+01 6.479679608585858830e+01 6.696346275252524549e+01
5.064938446969696884e+01 6.496977588383838054e+01 6.704979482323231821e+01
5.071141098484848442e+01 6.512334280303029743e+01 6.713344381313130782e+01
5.078618213383838054e+01 6.530543718434343248e+01 6.722636521464646364e+01
5.085270675505050519e+01 6.546334438131313505e+01 6.730946180555555713e+01
5.080153093434343248e+01 6.546725063131313505e+01 6.724786931818181301e+01
5.037472380050505194e+01 6.473709753787878185e+01 6.673693970959595845e+01
4.980523989898989612e+01 6.363494318181817988e+01 6.607275883838383379e+01
4.949893465909090651e+01 6.283747632575757791e+01 6.567728061868686495e+01
4.935570549242424221e+01 6.245450599747474740e+01 6.547896938131313505e+01
4.929316603535353636e+01 6.230058396464646364e+01 6.540901199494949481e+01
4.922368213383838054e+01 6.219243213383838054e+01 6.532848011363635976e+01
4.917294034090909349e+01 6.210318023989898961e+01 6.529320549242424931e+01
4.927647569444444287e+01 6.224049084595959869e+01 6.537590751262625588e+01
4.935610006313131493e+01 6.234473642676767469e+01 6.543611900252524549e+01
4.938226010101010388e+01 6.243402777777777857e+01 6.550457702020202078e+01
4.940988005050505194e+01 6.245186237373737725e+01 6.548626893939393767e+01
4.940845959595959869e+01 6.249873737373737725e+01 6.551420454545454675e+01
4.948910984848485128e+01 6.260227272727272663e+01 6.561047979797979224e+01
4.951870265151514872e+01 6.274392361111111427e+01 6.571346275252524549e+01
4.966445707070707272e+01 6.290814393939393767e+01 6.583696338383838054e+01
4.970963541666666430e+01 6.307942708333333570e+01 6.594290561868686495e+01
4.984296085858586167e+01 6.330776515151514872e+01 6.607812500000000000e+01
4.989382102272727337e+01 6.347289299242424221e+01 6.618296243686869218e+01
4.999944760101010388e+01 6.367447916666666430e+01 6.631194760101010388e+01
5.010594223484848442e+01 6.380796243686868507e+01 6.641244476010101039e+01
5.016836332070707272e+01 6.394330018939393767e+01 6.648433554292928704e+01
5.024281881313131493e+01 6.413328598484848442e+01 6.660708648989898961e+01
5.023279671717171624e+01 6.423342803030303116e+01 6.662989267676768179e+01
5.035815183080808310e+01 6.444606218434343248e+01 6.676976799242424931e+01
5.043343592171716949e+01 6.458305713383838054e+01 6.682516571969696884e+01
5.053057922979797922e+01 6.479794034090909349e+01 6.692562342171717660e+01
5.049609375000000000e+01 6.477008364898989612e+01 6.690550031565656752e+01
5.007477114898989612e+01 6.408534564393939092e+01 6.639011205808080263e+01
4.967112531565656752e+01 6.311525410353535648e+01 6.582548137626262985e+01
4.927698863636363313e+01 6.243828914141413833e+01 6.541808712121212466e+01
4.920699179292929415e+01 6.213454861111111427e+01 6.528669507575757791e+01
4.920375631313131493e+01 6.208112373737373701e+01 6.525883838383838054e+01
4.919365530303030454e+01 6.206328914141413833e+01 6.525726010101010388e+01
4.917593907828283051e+01 6.207556029040404155e+01 6.525548453282827666e+01
4.926901830808080973e+01 6.221014835858586167e+01 6.536718750000000000e+01
4.936841066919191690e+01 6.240187026515151558e+01 6.547336647727273373e+01
4.942783301767676818e+01 6.249396306818182012e+01 6.549159564393939092e+01
4.943521148989898961e+01 6.255815972222222143e+01 6.556210542929292728e+01
4.945103377525252597e+01 6.259244791666666430e+01 6.558518781565656752e+01
4.953034248737373701e+01 6.272399779040404155e+01 6.568343592171717660e+01
4.961987058080808310e+01 6.285077335858586167e+01 6.578890467171717660e+01
4.975978535353535648e+01 6.309027777777777857e+01 6.594412878787878185e+01
4.984907670454545325e+01 6.328594539141413833e+01 6.608029513888888573e+01
4.988648200757575779e+01 6.344266887626262275e+01 6.614800347222222854e+01
5.004892676767676818e+01 6.369476010101010388e+01 6.631029040404040131e+01
5.009213226010101039e+01 6.384386837121212466e+01 6.640021306818181301e+01
5.016994160353535648e+01 6.405630523989898961e+01 6.654115372474747403e+01
5.023832070707070585e+01 6.418197601010101039e+01 6.659201388888888573e+01
5.031711647727272663e+01 6.434363162878787534e+01 6.670032354797979224e+01
5.039236111111111427e+01 6.450173611111111427e+01 6.679103535353534937e+01
5.044219539141413833e+01 6.465005523989898961e+01 6.681861584595959869e+01
5.052122790404040131e+01 6.481305239898989612e+01 6.692921401515151558e+01
5.061146622474747403e+01 6.504470486111111427e+01 6.702544981060606233e+01
5.076633522727272663e+01 6.526160037878787534e+01 6.716090593434343248e+01
5.081644570707070585e+01 6.545391414141414543e+01 6.724084595959595845e+01
5.091358901515151558e+01 6.564464962121212466e+01 6.734588068181818699e+01
5.098113952020202078e+01 6.583814709595959869e+01 6.744894255050505194e+01
5.101708491161615910e+01 6.597068339646465063e+01 6.747368213383838054e+01
5.114441287878787534e+01 6.616272095959595845e+01 6.758648989898989612e+01
5.121713226010101039e+01 6.629367897727273373e+01 6.766157670454545325e+01
5.133116319444444287e+01 6.653176294191919737e+01 6.775619476010101039e+01
5.131597222222222143e+01 6.660574494949494806e+01 6.779655934343433898e+01
5.101684816919191690e+01 6.607603377525252597e+01 6.739200599747475451e+01
5.039058554292929415e+01 6.492325599747475451e+01 6.667956912878787534e+01
4.995789930555555713e+01 6.388592960858586167e+01 6.617380839646465063e+01
4.971097695707070585e+01 6.335870422979797922e+01 6.594803503787878185e+01
4.969598327020202078e+01 6.317262468434343248e+01 6.591378630050505194e+01
4.965711805555555713e+01 6.311939709595959869e+01 6.587413194444444287e+01
4.966686395202020066e+01 6.311099273989898961e+01 6.587882733585858830e+01
4.971010890151514872e+01 6.317207228535353636e+01 6.590849905303029743e+01
4.980433238636363313e+01 6.330228061868687206e+01 6.600840435606060908e+01
4.977911931818182012e+01 6.332725694444444287e+01 6.600576073232323893e+01
4.979442866161615910e+01 6.332441603535353636e+01 6.600923295454545325e+01
4.975311710858586167e+01 6.328357796717171624e+01 6.596523832070707272e+01
4.976759785353535648e+01 6.333372790404040131e+01 6.601223169191919737e+01
4.986095328282828376e+01 6.345154671717171624e+01 6.609327651515151558e+01
4.994945549242424221e+01 6.359544665404040131e+01 6.620355902777777146e+01
5.003858901515151558e+01 6.377454229797979934e+01 6.632883522727273373e+01
5.012243529040404155e+01 6.398670296717171624e+01 6.644771938131313505e+01
5.025169665404040131e+01 6.419061710858585457e+01 6.658502998737374412e+01
5.030275410353535648e+01 6.434757733585858830e+01 6.662503945707071296e+01
5.033360953282828376e+01 6.446492266414141170e+01 6.670229640151515582e+01
5.038395675505050519e+01 6.460744160353534937e+01 6.674727746212121815e+01
5.046137152777777857e+01 6.476629577020202078e+01 6.680985637626262985e+01
5.055374053030303116e+01 6.493789457070707272e+01 6.691216856060606233e+01
5.060992739898989612e+01 6.506005366161616621e+01 6.698019255050505194e+01
5.071058238636363313e+01 6.525619476010101039e+01 6.705275410353534937e+01
5.074810606060606233e+01 6.537894570707071296e+01 6.713667929292928704e+01
5.065447443181817988e+01 6.526905776515151558e+01 6.700390625000000000e+01
5.016654829545454675e+01 6.446168718434343248e+01 6.648488794191919737e+01
4.977189867424242209e+01 6.352537089646464352e+01 6.596713226010101039e+01
4.954628314393939092e+01 6.300666824494949481e+01 6.571942077020202078e+01
4.948646622474747403e+01 6.276377051767676818e+01 6.560988794191919737e+01
4.946871054292929415e+01 6.278294665404040131e+01 6.564484690656566102e+01
4.948323074494949481e+01 6.281735321969696884e+01 6.567988478535353636e+01
4.962859059343434609e+01 6.304178503787878896e+01 6.585823074494949481e+01
4.971496212121212466e+01 6.319160353535353636e+01 6.594176136363635976e+01
4.975872001262626299e+01 6.329975536616161946e+01 6.599861900252524549e+01
4.976235006313131493e+01 6.332627051767676818e+01 6.593959122474747403e+01
4.969231376262626299e+01 6.324644886363636687e+01 6.591122159090909349e+01
4.970624210858586167e+01 6.328026357323232531e+01 6.594835069444444287e+01
4.978551136363636687e+01 6.336568813131312794e+01 6.603898358585858830e+01
4.988837594696969546e+01 6.356261837121212466e+01 6.616220801767676107e+01
4.996855271464646364e+01 6.374743529040404155e+01 6.627221433080808310e+01
5.009564393939393767e+01 6.397048611111111427e+01 6.639741161616161946e+01
5.020146780303030454e+01 6.417084911616161946e+01 6.651270517676768179e+01
5.025726010101010388e+01 6.432070707070707272e+01 6.657828282828282340e+01
5.036403093434343248e+01 6.452596275252524549e+01 6.667795138888888573e+01
5.039157196969696884e+01 6.464062500000000000e+01 6.674179292929292728e+01
5.048031092171716949e+01 6.484883996212121815e+01 6.684663036616161946e+01
5.055934343434343248e+01 6.496969696969696884e+01 6.689851641414141170e+01
5.064453125000000000e+01 6.514610953282827666e+01 6.702915877525252597e+01
5.070217803030303116e+01 6.532039141414141170e+01 6.709359217171717660e+01
5.076479640151514872e+01 6.545971433080808310e+01 6.716457544191919737e+01
5.087981376262626299e+01 6.567874053030303116e+01 6.728701073232323893e+01
5.078030303030303116e+01 6.562594696969696884e+01 6.715703914141414543e+01
5.032240372474747403e+01 6.477016256313130782e+01 6.659102746212121815e+01
4.977430555555555713e+01 6.362326388888888573e+01 6.596401515151515582e+01
4.942522885101010388e+01 6.282043087121212466e+01 6.558100536616161946e+01
4.927454229797979934e+01 6.249076704545454675e+01 6.538675820707071296e+01
4.924309501262626299e+01 6.233289930555555713e+01 6.532327178030303116e+01
4.930918560606060908e+01 6.237294823232323182e+01 6.533412247474747403e+01
4.928515625000000000e+01 6.237432922979797922e+01 6.534560448232323893e+01
4.938068181818182012e+01 6.253535353535353636e+01 6.545975378787878185e+01
4.944925820707070585e+01 6.266927083333333570e+01 6.553953598484848442e+01
4.946322601010101039e+01 6.271827651515151558e+01 6.557228535353534937e+01
4.947376104797979934e+01 6.273575599747474740e+01 6.560175978535353636e+01
4.945987215909090651e+01 6.273701862373737725e+01 6.558850220959595845e+01
4.957745422979797922e+01 6.285917771464646364e+01 6.568446180555555713e+01
4.957335069444444287e+01 6.297391887626262275e+01 6.572612847222222854e+01
4.971081912878787534e+01 6.318035827020202078e+01 6.590542140151515582e+01
4.981830018939393767e+01 6.342104640151514872e+01 6.607129892676768179e+01
4.988044507575757791e+01 6.354300820707070585e+01 6.613581123737374412e+01
5.000402462121212466e+01 6.380468750000000000e+01 6.630705492424242209e+01
5.005157039141413833e+01 6.394835069444444287e+01 6.635239109848484418e+01
5.020707070707070585e+01 6.415909090909090651e+01 6.649952651515151558e+01
5.024542297979797922e+01 6.431723484848484418e+01 6.656171085858585457e+01
5.031691919191919027e+01 6.447553661616161946e+01 6.663304924242424931e+01
5.042759627525252597e+01 6.464618844696970257e+01 6.673141571969696884e+01
5.043552714646464352e+01 6.478322285353534937e+01 6.679900568181818699e+01
5.059931344696969546e+01 6.503602430555555713e+01 6.692365056818181301e+01
5.064117739898989612e+01 6.520115214646465063e+01 6.700797032828282340e+01
5.072790404040404155e+01 6.538904671717172334e+01 6.710779671717172334e+01
5.081510416666666430e+01 6.555421401515151558e+01 6.719136679292928704e+01
5.091236584595959869e+01 6.571981534090909349e+01 6.727000473484848442e+01
5.102568655303030454e+01 6.593556660353534937e+01 6.741899463383838054e+01
5.103819444444444287e+01 6.607780934343433898e+01 6.741382575757575069e+01
5.110507417929292728e+01 6.626779513888888573e+01 6.752189867424242209e+01
5.115131786616161946e+01 6.637669665404040131e+01 6.759655145202020776e+01
5.127750157828283051e+01 6.661083491161616621e+01 6.771263415404040131e+01
5.118963068181817988e+01 6.656699810606060908e+01 6.764733270202020776e+01
5.064232165404040131e+01 6.565447443181818699e+01 6.695829387626262985e+01
5.004040404040404155e+01 6.431250000000000000e+01 6.619223484848484418e+01
4.951298137626262275e+01 6.322778566919191690e+01 6.570205965909090651e+01
4.932607323232323182e+01 6.273753156565656752e+01 6.544665404040404155e+01
4.927367424242424221e+01 6.253551136363636687e+01 6.540230429292928704e+01
4.930113636363636687e+01 6.245186237373737725e+01 6.534390782828282340e+01
4.922368213383838054e+01 6.241402304292929415e+01 6.529738794191919737e+01
4.929446811868687206e+01 6.242514993686868507e+01 6.532524463383838054e+01
4.931253945707070585e+01 6.253791824494949481e+01 6.539461016414141170e+01
4.932228535353535648e+01 6.258412247474747403e+01 6.542013888888888573e+01
4.932402146464646364e+01 6.262941919191919027e+01 6.543055555555555713e+01
4.938312815656565391e+01 6.264070391414141170e+01 6.545999053030303116e+01
4.944728535353535648e+01 6.272537878787878896e+01 6.553488005050505194e+01
4.957086489898989612e+01 6.286994949494949481e+01 6.567013888888888573e+01
4.958976483585858830e+01 6.300501104797979934e+01 6.575327493686869218e+01
4.970766256313131493e+01 6.323607165404040131e+01 6.590636837121212466e+01
4.981573547979797922e+01 6.344957386363636687e+01 6.603211805555555713e+01
4.991453598484848442e+01 6.364512310606060908e+01 6.615964330808080263e+01
4.995860953282828376e+01 6.383408301767676818e+01 6.624412089646465063e+01
5.010562657828283051e+01 6.404044349747475451e+01 6.636651672979797922e+01
5.013123421717171624e+01 6.419831123737374412e+01 6.644894255050505194e+01
5.025027619949494806e+01 6.433850220959595845e+01 6.653310448232323893e+01
5.028349905303030454e+01 6.450919349747475451e+01 6.659126420454545325e+01
5.040325126262626299e+01 6.470738636363635976e+01 6.669649621212121815e+01
5.048488794191919027e+01 6.490281723484848442e+01 6.680843592171717660e+01
5.057919034090909349e+01 6.507193023989898961e+01 6.688884943181818699e+01
5.064946338383838054e+01 6.527588383838383379e+01 6.698248106060606233e+01
5.069444444444444287e+01 6.545328282828282340e+01 6.705208333333332860e+01
5.078503787878787534e+01 6.558570075757575069e+01 6.713226010101010388e+01
5.090905145202020066e+01 6.581845801767676107e+01 6.724759311868686495e+01
5.098796559343434609e+01 6.596997316919191690e+01 6.732366635101010388e+01
5.112200126262626299e+01 6.618939393939393767e+01 6.747537878787878185e+01
5.098721590909090651e+01 6.607607323232323893e+01 6.732733585858585457e+01
5.039816130050505194e+01 6.516157670454545325e+01 6.662448705808080263e+01
4.983076862373737725e+01 6.388679766414141170e+01 6.595624210858585457e+01
4.944649621212121104e+01 6.302099116161615910e+01 6.552856691919191690e+01
4.927777777777777857e+01 6.260164141414141170e+01 6.537642045454545325e+01
4.924940814393939092e+01 6.245284880050505194e+01 6.530622632575757791e+01
4.926799242424242209e+01 6.248358585858586167e+01 6.532023358585858830e+01
4.928393308080808310e+01 6.248626893939393767e+01 6.532354797979797922e+01
4.933538510101010388e+01 6.264015151515151558e+01 6.541461489898989612e+01
4.941919191919191690e+01 6.274542297979797922e+01 6.547380050505050519e+01
4.938912563131312794e+01 6.278890467171716949e+01 6.548398042929292728e+01
4.940605271464646364e+01 6.277442392676767469e+01 6.546776357323231821e+01
4.943773674242424221e+01 6.279158775252525260e+01 6.547340593434343248e+01
4.941429924242424221e+01 6.281376262626262275e+01 6.550520833333332860e+01
4.944740372474747403e+01 6.295213857323232531e+01 6.557508680555555713e+01
4.964433396464646364e+01 6.317511047979797922e+01 6.575765467171717660e+01
4.971184501262626299e+01 6.334489425505050519e+01 6.583984375000000000e+01
4.983566130050505194e+01 6.357413983585858830e+01 6.597723327020202078e+01
4.992163825757575779e+01 6.376065340909090651e+01 6.611134785353534937e+01
5.007528409090909349e+01 6.401688762626262985e+01 6.629056186868686495e+01
5.016457544191919027e+01 6.425390625000000000e+01 6.642057291666667140e+01
5.016595643939393767e+01 6.437208017676768179e+01 6.642558396464646364e+01
5.028977272727272663e+01 6.459659090909090651e+01 6.655855429292928704e+01
5.036012468434343248e+01 6.473796559343433898e+01 6.662417140151515582e+01
5.045497948232323182e+01 6.495261205808080263e+01 6.674696180555555713e+01
5.048350694444444287e+01 6.502848800505050519e+01 6.674376578282827666e+01
5.011178188131312794e+01 6.452150410353534937e+01 6.636130839646465063e+01
4.962748579545454675e+01 6.349080650252525260e+01 6.573686079545454675e+01
4.917897727272727337e+01 6.257623106060606233e+01 6.521796085858585457e+01
4.899419981060606233e+01 6.213719223484848442e+01 6.498851799242424931e+01
4.893529040404040131e+01 6.197853535353535648e+01 6.491161616161616621e+01
4.900248579545454675e+01 6.199664614898989612e+01 6.493477746212121815e+01
4.907370580808080973e+01 6.210274621212121104e+01 6.500946969696970257e+01
4.919618055555555713e+01 6.234532828282828376e+01 6.517266414141414543e+01
4.923682133838384090e+01 6.251160037878787534e+01 6.522924558080808310e+01
4.924747474747474740e+01 6.256565656565656752e+01 6.524273989898989612e+01
4.923023200757575779e+01 6.255520044191919027e+01 6.523733428030303116e+01
4.920916193181817988e+01 6.254738794191919027e+01 6.522526041666667140e+01
4.930894886363636687e+01 6.263502209595959869e+01 6.530279356060606233e+01
4.936497790404040131e+01 6.279458648989898961e+01 6.538738952020202078e+01
4.946543560606060908e+01 6.294602272727272663e+01 6.548153409090909349e+01
4.956332859848485128e+01 6.318122632575757791e+01 6.564681976010101039e+01
4.964898989898989612e+01 6.338778409090909349e+01 6.575615530303029743e+01
4.974585700757575779e+01 6.361912089646464352e+01 6.588222064393939092e+01
4.979237689393939092e+01 6.380610795454545325e+01 6.595115214646465063e+01
4.994760101010101039e+01 6.403061868686869218e+01 6.608506944444444287e+01
5.002765940656565391e+01 6.416733743686869218e+01 6.614240056818181301e+01
5.014421559343434609e+01 6.436643781565656752e+01 6.628089488636364024e+01
5.017400568181817988e+01 6.451191603535353636e+01 6.634635416666667140e+01
5.024885574494949481e+01 6.466615372474747403e+01 6.640352746212121815e+01
5.032713857323232531e+01 6.487764362373737015e+01 6.650627367424242209e+01
5.042609690656565391e+01 6.504431029040404155e+01 6.660965119949494806e+01
5.048457228535353636e+01 6.526108743686869218e+01 6.670237531565656752e+01
5.056841856060606233e+01 6.541201073232323893e+01 6.679032512626262985e+01
5.067242739898989612e+01 6.561482007575757791e+01 6.691059027777777146e+01
5.080796243686868507e+01 6.582485006313130782e+01 6.703286773989898961e+01
5.082966382575757791e+01 6.597092013888888573e+01 6.707776988636364024e+01
5.073461174242424221e+01 6.585740214646465063e+01 6.695225694444444287e+01
5.009035669191919027e+01 6.477675189393939092e+01 6.614685921717172334e+01
4.945726799242424221e+01 6.339571496212121104e+01 6.540613162878787534e+01
4.898346748737373701e+01 6.238766571969696884e+01 6.487093592171717660e+01
4.884055397727272663e+01 6.190415877525252597e+01 6.465636837121212466e+01
4.871934185606060908e+01 6.171965751262626299e+01 6.456261837121212466e+01
4.875268308080808310e+01 6.169491792929292728e+01 6.454513888888888573e+01
4.874885574494949481e+01 6.167893781565656752e+01 6.453989109848484418e+01
4.875449810606060908e+01 6.172687815656565391e+01 6.457520517676768179e+01
4.884236900252525260e+01 6.186067708333333570e+01 6.468059501262625588e+01
4.890411931818182012e+01 6.191548295454545325e+01 6.470351957070707272e+01
4.885830965909090651e+01 6.195553188131312794e+01 6.471531723484848442e+01
4.888427241161615910e+01 6.195750473484848442e+01 6.470545296717172334e+01
4.888853377525252597e+01 6.202379261363636687e+01 6.472092013888888573e+01
4.900599747474747403e+01 6.219981060606060908e+01 6.486710858585858830e+01
4.904454703282828376e+01 6.236825284090909349e+01 6.495426925505050519e+01
4.925718118686868507e+01 6.262144886363636687e+01 6.513723169191919737e+01
4.930614741161615910e+01 6.285965119949494806e+01 6.529131155303029743e+01
4.949139835858586167e+01 6.309903724747474740e+01 6.544468118686869218e+01
4.954573074494949481e+01 6.331403882575757791e+01 6.556119791666667140e+01
4.960527146464646364e+01 6.351025883838384090e+01 6.564709595959595845e+01
4.975781250000000000e+01 6.369499684343434609e+01 6.577659406565656752e+01
4.978488005050505194e+01 6.385621843434343248e+01 6.582907196969696884e+01
4.987598642676767469e+01 6.406474905303029743e+01 6.593911773989898961e+01
4.995426925505050519e+01 6.421626420454545325e+01 6.602339804292928704e+01
5.006494633838384090e+01 6.442937184343433898e+01 6.616311553030303116e+01
5.017069128787878896e+01 6.464875315656566102e+01 6.626759785353534937e+01
5.016714015151514872e+01 6.468734217171717660e+01 6.624368686868686495e+01
4.968308080808080973e+01 6.395565025252525260e+01 6.571764520202020776e+01
4.904395517676767469e+01 6.272829861111111427e+01 6.493047664141414543e+01
4.866323390151514872e+01 6.180117582070707272e+01 6.447683869949494806e+01
4.842755681818182012e+01 6.131029040404040131e+01 6.420864898989898961e+01
4.840443497474747403e+01 6.121409406565656752e+01 6.418189709595959869e+01
4.840502683080808310e+01 6.117491319444444287e+01 6.414334753787878185e+01
4.846164772727272663e+01 6.119696969696969546e+01 6.417029671717172334e+01
4.851187657828283051e+01 6.133716066919191690e+01 6.425272253787878185e+01
4.862914299242424221e+01 6.149404198232323182e+01 6.436130839646465063e+01
4.863517992424242209e+01 6.158293876262626299e+01 6.441043244949494806e+01
4.861955492424242209e+01 6.158372790404040131e+01 6.437760416666667140e+01
4.863561395202020066e+01 6.160262784090909349e+01 6.437030460858585457e+01
4.864334753787878896e+01 6.164476799242424221e+01 6.440960385101010388e+01
4.872561553030303116e+01 6.178338068181817988e+01 6.449565972222222854e+01
4.885345643939393767e+01 6.198303345959595845e+01 6.464133522727273373e+01
4.896563289141413833e+01 6.222794349747474740e+01 6.475966698232323893e+01
4.903113162878787534e+01 6.242507102272727337e+01 6.488940183080808310e+01
4.910049715909090651e+01 6.261880523989898961e+01 6.498796559343433898e+01
4.924814551767676818e+01 6.285041824494949481e+01 6.513466698232323893e+01
4.932784880050505194e+01 6.301440183080808310e+01 6.523283617424242209e+01
4.941382575757575779e+01 6.318686868686868507e+01 6.531881313131313505e+01
4.947502367424242209e+01 6.338506155303030454e+01 6.541757417929292728e+01
4.954056186868687206e+01 6.350489267676767469e+01 6.548784722222222854e+01
4.966769255050505194e+01 6.374392361111111427e+01 6.560598169191919737e+01
4.972194602272727337e+01 6.388561395202020066e+01 6.567538667929292728e+01
4.974273989898989612e+01 6.406360479797979224e+01 6.577335858585858830e+01
4.988750789141413833e+01 6.429265309343433898e+01 6.591339172979797922e+01
4.994744318181817988e+01 6.446638257575757791e+01 6.599463383838383379e+01
5.006356534090909349e+01 6.469266887626262985e+01 6.609465751262625588e+01
5.017735953282828376e+01 6.484686710858585457e+01 6.620545296717172334e+01
5.028416982323232531e+01 6.506289457070707272e+01 6.629632260101010388e+01
5.032619160353535648e+01 6.524964488636364024e+01 6.638316761363635976e+01
5.042692550505050519e+01 6.537310606060606233e+01 6.648832070707071296e+01
5.051104797979797922e+01 6.559232954545454675e+01 6.658254419191919737e+01
5.058270202020202078e+01 6.573784722222222854e+01 6.667850378787878185e+01
5.054399463383838054e+01 6.572818023989898961e+01 6.660712594696970257e+01
4.991891571969696884e+01 6.478065814393939092e+01 6.587803819444444287e+01
4.932394255050505194e+01 6.345099431818182012e+01 6.509887941919191690e+01
4.883128156565656752e+01 6.232528409090909349e+01 6.458933080808080263e+01
4.859860321969696884e+01 6.183739741161615910e+01 6.440526357323231821e+01
4.858392518939393767e+01 6.168162089646464352e+01 6.433787089646465063e+01
4.860538983585858830e+01 6.167025726010101039e+01 6.432271938131313505e+01
4.862586805555555713e+01 6.170730744949494806e+01 6.436750315656566102e+01
4.869389204545454675e+01 6.183420138888888573e+01 6.442195391414141170e+01
4.881151357323232531e+01 6.199727746212121104e+01 6.452600220959595845e+01
4.872695707070707272e+01 6.196701388888888573e+01 6.446306818181818699e+01
4.873622948232323182e+01 6.192862215909090651e+01 6.446334438131313505e+01
4.868296243686868507e+01 6.188577178030303116e+01 6.441386521464646364e+01
4.871468592171716949e+01 6.191670612373737725e+01 6.444464172979797922e+01
4.881068497474747403e+01 6.207630997474747403e+01 6.453701073232323893e+01
4.888806029040404155e+01 6.222249842171716949e+01 6.465542140151515582e+01
4.898117897727272663e+01 6.245766256313131493e+01 6.481545928030303116e+01
4.908621369949494806e+01 6.262330334595959869e+01 6.490676294191919737e+01
4.917033617424242209e+01 6.283463541666666430e+01 6.503823390151515582e+01
4.926345486111111427e+01 6.302418718434343248e+01 6.515392203282827666e+01
4.929296875000000000e+01 6.317017834595959869e+01 6.519937657828282340e+01
4.938190498737373701e+01 6.336485953282828376e+01 6.531388099747475451e+01
4.944724589646464352e+01 6.350090751262626299e+01 6.536738478535353636e+01
4.953965435606060908e+01 6.365281723484848442e+01 6.545505839646465063e+01
4.962590751262626299e+01 6.382508680555555713e+01 6.554210069444444287e+01
4.969775883838384090e+01 6.401452020202020776e+01 6.565751262626262985e+01
4.970462436868687206e+01 6.407378472222222854e+01 6.565948547979797922e+01
4.936691130050505194e+01 6.351432291666666430e+01 6.523622948232323893e+01
4.880744949494949481e+01 6.239709595959595845e+01 6.460101010101010388e+01
4.834599905303030454e+01 6.145142834595959869e+01 6.406790561868686495e+01
4.817885890151514872e+01 6.100382733585858830e+01 6.386699021464646364e+01
4.819322127525252597e+01 6.088798137626262275e+01 6.381616950757575779e+01
4.819985006313131493e+01 6.093138415404040131e+01 6.386115056818182012e+01
4.830875157828283051e+01 6.105496369949494806e+01 6.393454071969696884e+01
4.840261994949494806e+01 6.131739267676767469e+01 6.411789772727273373e+01
4.851337594696969546e+01 6.149554135101010388e+01 6.421760574494949481e+01
4.848532196969696884e+01 6.151925505050505194e+01 6.419034090909090651e+01
4.849270044191919027e+01 6.152252998737373701e+01 6.418162089646465063e+01
4.843978851010101039e+01 6.145067866161615910e+01 6.416169507575757791e+01
4.849037247474747403e+01 6.154166666666666430e+01 6.421527777777777146e+01
4.863226010101010388e+01 6.171480429292929415e+01 6.435227272727273373e+01
4.871393623737373701e+01 6.191453598484848442e+01 6.445730744949494806e+01
4.880741003787878896e+01 6.213206281565656752e+01 6.459749842171717660e+01
4.885653409090909349e+01 6.235669191919191690e+01 6.467929292929292728e+01
4.900777304292929415e+01 6.259599905303030454e+01 6.483100536616161946e+01
4.908767361111111427e+01 6.274360795454545325e+01 6.492447916666667140e+01
4.915636837121212466e+01 6.294566761363636687e+01 6.504825599747475451e+01
4.919120896464646364e+01 6.306431502525252597e+01 6.509588068181818699e+01
4.932871685606060908e+01 6.327458175505050519e+01 6.523244160353534937e+01
4.940194917929292728e+01 6.341015625000000000e+01 6.528562973484848442e+01
4.947328756313131493e+01 6.358203125000000000e+01 6.537669665404040131e+01
4.957007575757575779e+01 6.373989898989898961e+01 6.547411616161616621e+01
4.958246527777777857e+01 6.387649936868687206e+01 6.552343750000000000e+01
4.969073547979797922e+01 6.410235164141414543e+01 6.565143623737374412e+01
4.977063604797979934e+01 6.425248579545454675e+01 6.571886837121212466e+01
4.990786773989898961e+01 6.447257733585858830e+01 6.585373263888888573e+01
4.993935448232323182e+01 6.463332544191919737e+01 6.593461963383838054e+01
4.971946022727272663e+01 6.431589330808080263e+01 6.562523674242424931e+01
4.902189867424242209e+01 6.305535827020202078e+01 6.481593276515151558e+01
4.841871843434343248e+01 6.166603535353535648e+01 6.408933080808080263e+01
4.801546717171716949e+01 6.082544191919191690e+01 6.367061237373737725e+01
4.789153251262626299e+01 6.044156407828283051e+01 6.345624210858586167e+01
4.786904198232323182e+01 6.038545612373737725e+01 6.343659248737373701e+01
4.785120738636363313e+01 6.035247001262626299e+01 6.340187026515151558e+01
4.782915088383838054e+01 6.033167613636363313e+01 6.339717487373737725e+01
4.799060921717171624e+01 6.047845643939393767e+01 6.350875946969696884e+01
4.798690025252525260e+01 6.060227272727272663e+01 6.357733585858586167e+01
4.805066287878787534e+01 6.068560606060606233e+01 6.362326388888888573e+01
4.802166193181817988e+01 6.069290561868687206e+01 6.362393465909090651e+01
4.807788825757575779e+01 6.071740845959595845e+01 6.364843750000000000e+01
4.811604324494949481e+01 6.084094854797979934e+01 6.374609375000000000e+01
4.817787247474747403e+01 6.096480429292929415e+01 6.381723484848485128e+01
4.835984848484848442e+01 6.120864898989898961e+01 6.399147727272727337e+01
4.839752998737373701e+01 6.137006786616161946e+01 6.409655145202020776e+01
4.845194128787878896e+01 6.163012941919191690e+01 6.419594381313130782e+01
4.864078282828283051e+01 6.182559974747474740e+01 6.436126893939393767e+01
4.867582070707070585e+01 6.199589646464646364e+01 6.442424242424242209e+01
4.878192077020202078e+01 6.217096748737373701e+01 6.454549400252524549e+01
4.881601167929292728e+01 6.230938289141413833e+01 6.463892834595959869e+01
4.896279198232323182e+01 6.248299400252525260e+01 6.473520359848484418e+01
4.906897095959595845e+01 6.268055555555555713e+01 6.488162878787878185e+01
4.909891887626262275e+01 6.281072443181817988e+01 6.491883680555555713e+01
4.920584753787878896e+01 6.300935132575757791e+01 6.505875157828282340e+01
4.924431818181817988e+01 6.316698232323232531e+01 6.509958964646465063e+01
4.931660353535353636e+01 6.338020833333333570e+01 6.521717171717172334e+01
4.940774936868687206e+01 6.352422664141413833e+01 6.530326704545454675e+01
4.949885574494949481e+01 6.369124842171716949e+01 6.539879261363635976e+01
4.956739267676767469e+01 6.390072601010101039e+01 6.547222222222222854e+01
4.960578440656565391e+01 6.401345486111111427e+01 6.553476167929292728e+01
4.922490530303030454e+01 6.338636363636363313e+01 6.502982954545454675e+01
4.852537089646464352e+01 6.199427872474747403e+01 6.421760574494949481e+01
4.800485321969696884e+01 6.083818655303030454e+01 6.361833175505050519e+01
4.768600063131312794e+01 6.020241477272727337e+01 6.327359532828283051e+01
4.763845486111111427e+01 5.996437026515151558e+01 6.314113794191919027e+01
4.761138731060606233e+01 5.994124842171716949e+01 6.310980902777777857e+01
4.762740688131312794e+01 5.991323390151514872e+01 6.309757733585858830e+01
4.769014362373737725e+01 5.998654513888888573e+01 6.317341382575757791e+01
4.781242108585858830e+01 6.016532512626262275e+01 6.329995265151514872e+01
4.782717803030303116e+01 6.025047348484848442e+01 6.331770833333333570e+01
4.784966856060606233e+01 6.034146148989898961e+01 6.338786300505050519e+01
4.781423611111111427e+01 6.035290404040404155e+01 6.338020833333333570e+01
4.793667140151514872e+01 6.042388731060606233e+01 6.346271306818182012e+01
4.799376578282828376e+01 6.056147411616161946e+01 6.354726957070707272e+01
4.806818181818182012e+01 6.077572601010101039e+01 6.368702651515151558e+01
4.818959122474747403e+01 6.098299400252525260e+01 6.381096117424242209e+01
4.825402462121212466e+01 6.118600063131312794e+01 6.389449179292929415e+01
4.838624526515151558e+01 6.143438289141413833e+01 6.409363162878787534e+01
4.850134154040404155e+01 6.159272411616161946e+01 6.419483901515151558e+01
4.861245265151514872e+01 6.184856376262626299e+01 6.433767361111111427e+01
4.865147569444444287e+01 6.198954387626262275e+01 6.438316761363635976e+01
4.877229324494949481e+01 6.219337910353535648e+01 6.452576546717172334e+01
4.885310132575757791e+01 6.234931344696969546e+01 6.462172506313130782e+01
4.890561868686868507e+01 6.249763257575757791e+01 6.471085858585858830e+01
4.900804924242424221e+01 6.268513257575757791e+01 6.482118055555555713e+01
4.910598169191919027e+01 6.286939709595959869e+01 6.491658775252524549e+01
4.917195391414141170e+01 6.309225063131312794e+01 6.503527462121212466e+01
4.911225536616161946e+01 6.304833491161615910e+01 6.499056976010101039e+01
4.864255839646464352e+01 6.223820233585858830e+01 6.439981849747475451e+01
4.807137784090909349e+01 6.103381470959595845e+01 6.368517203282828376e+01
4.767929292929292728e+01 6.010937500000000000e+01 6.316698232323232531e+01
4.745758364898989612e+01 5.976519097222222143e+01 6.297794349747474740e+01
4.750055239898989612e+01 5.966311553030303116e+01 6.293284406565656752e+01
4.753527462121212466e+01 5.970320391414141170e+01 6.294752209595959869e+01
4.759280303030303116e+01 5.980050505050505194e+01 6.300189393939393767e+01
4.769049873737373701e+01 5.996953914141413833e+01 6.312058080808080973e+01
4.780516098484848442e+01 6.018600063131312794e+01 6.328227588383838054e+01
4.776467803030303116e+01 6.023437500000000000e+01 6.328708964646464352e+01
4.783230744949494806e+01 6.026160037878787534e+01 6.327643623737373701e+01
4.782323232323232531e+01 6.028661616161615910e+01 6.331912878787878896e+01
4.786556976010101039e+01 6.037314551767676818e+01 6.338892834595959869e+01
4.795403251262626299e+01 6.054083806818182012e+01 6.350643150252525260e+01
4.805184659090909349e+01 6.074013573232323182e+01 6.364638573232323182e+01
4.820711016414141170e+01 6.100051294191919027e+01 6.382800662878787534e+01
4.829774305555555713e+01 6.118458017676767469e+01 6.393142361111111427e+01
4.833755523989898961e+01 6.137164614898989612e+01 6.402884311868686495e+01
4.840451388888888573e+01 6.157670454545454675e+01 6.410101010101010388e+01
4.849708017676767469e+01 6.173476957070707272e+01 6.419720643939393767e+01
4.866031407828283051e+01 6.192041508838384090e+01 6.434244791666667140e+01
4.870529513888888573e+01 6.207335069444444287e+01 6.442167771464646364e+01
4.879415246212121104e+01 6.225753630050505194e+01 6.453578756313130782e+01
4.884027777777777857e+01 6.241208964646464352e+01 6.462941919191919737e+01
4.891252367424242209e+01 6.254762468434343248e+01 6.469456281565656752e+01
4.902367424242424221e+01 6.276089015151514872e+01 6.481376262626262985e+01
4.908199179292929415e+01 6.289212436868687206e+01 6.486229482323231821e+01
4.914062500000000000e+01 6.309738005050505194e+01 6.498421717171717660e+01
4.918990688131312794e+01 6.321878945707070585e+01 6.502513415404040131e+01
4.931687973484848442e+01 6.345071811868687206e+01 6.516394412878787534e+01
4.939299242424242209e+01 6.361742424242424221e+01 6.526530934343433898e+01
4.947020991161615910e+01 6.375714172979797922e+01 6.533132102272726627e+01
4.928594539141413833e+01 6.353499842171716949e+01 6.510065498737374412e+01
4.863758680555555713e+01 6.237322443181817988e+01 6.433408301767676107e+01
4.806877367424242209e+01 6.108502998737373701e+01 6.363237847222222143e+01
4.761789772727272663e+01 6.023547979797979934e+01 6.319018308080808310e+01
4.757642834595959869e+01 5.992507102272727337e+01 6.305054450757575779e+01
4.758061079545454675e+01 5.986896306818182012e+01 6.302884311868687206e+01
4.759520991161615910e+01 5.990281723484848442e+01 6.303081597222222143e+01
4.764780618686868507e+01 6.002943497474747403e+01 6.310613952020202078e+01
4.780961963383838054e+01 6.021492266414141170e+01 6.325690498737373701e+01
4.780500315656565391e+01 6.031652462121212466e+01 6.331841856060606233e+01
4.784595959595959869e+01 6.033917297979797922e+01 6.332086489898989612e+01
4.778105271464646364e+01 6.031040877525252597e+01 6.328894412878787534e+01
4.781526199494949481e+01 6.031684027777777857e+01 6.330547664141413833e+01
4.784718276515151558e+01 6.038364109848485128e+01 6.334276357323232531e+01
4.799814551767676818e+01 6.056948390151514872e+01 6.349120107323232531e+01
4.802485795454545325e+01 6.078006628787878896e+01 6.360740214646464352e+01
4.813561395202020066e+01 6.097178819444444287e+01 6.374356849747474740e+01
4.822896938131312794e+01 6.120213857323232531e+01 6.385270675505050519e+01
4.833029513888888573e+01 6.136186079545454675e+01 6.393525094696969546e+01
4.841635101010101039e+01 6.155934343434343248e+01 6.406960227272726627e+01
4.847861426767676818e+01 6.168110795454545325e+01 6.415001578282827666e+01
4.859670928030303116e+01 6.185901988636363313e+01 6.427473958333332860e+01
4.864693813131312794e+01 6.202351641414141170e+01 6.434753787878787534e+01
4.868244949494949481e+01 6.217361111111111427e+01 6.443386994949494806e+01
4.875339330808080973e+01 6.227943497474747403e+01 6.448555871212121815e+01
4.836300505050505194e+01 6.169491792929292728e+01 6.402683080808080263e+01
4.778918087121212466e+01 6.061620107323232531e+01 6.334205334595959869e+01
4.737314551767676818e+01 5.962945864898989612e+01 6.278965435606060908e+01
4.713024779040404155e+01 5.914776672979797922e+01 6.249309501262626299e+01
4.707386363636363313e+01 5.899447601010101039e+01 6.240577651515151558e+01
4.711383364898989612e+01 5.901534880050505194e+01 6.242538667929292728e+01
4.716777146464646364e+01 5.909327651515151558e+01 6.246843434343434609e+01
4.736280776515151558e+01 5.934655145202020066e+01 6.265905145202020066e+01
4.743181818181817988e+01 5.960732323232323182e+01 6.281707702020202078e+01
4.740577651515151558e+01 5.970170454545454675e+01 6.286158459595959869e+01
4.748772885101010388e+01 5.974341066919191690e+01 6.290297506313131493e+01
4.757086489898989612e+01 5.980224116161615910e+01 6.298879419191919027e+01
4.756029040404040131e+01 5.987421085858586167e+01 6.302588383838384090e+01
4.766323390151514872e+01 6.003349905303030454e+01 6.314555713383838054e+01
4.780180713383838054e+01 6.024009627525252597e+01 6.328776041666666430e+01
4.796977588383838054e+01 6.051759785353535648e+01 6.348871527777777857e+01
4.801530934343434609e+01 6.072837752525252597e+01 6.360811237373737725e+01
4.813273358585858830e+01 6.099589646464646364e+01 6.376672979797979934e+01
4.822072285353535648e+01 6.117132260101010388e+01 6.384367108585858830e+01
4.835396938131312794e+01 6.139421559343434609e+01 6.399648832070707272e+01
4.844128787878787534e+01 6.155981691919191690e+01 6.410337752525252597e+01
4.853590593434343248e+01 6.175449810606060908e+01 6.424676452020202078e+01
4.858297821969696884e+01 6.195008680555555713e+01 6.434939236111111427e+01
4.867952967171716949e+01 6.208325441919191690e+01 6.443836805555555713e+01
4.875347222222222143e+01 6.231313131313131493e+01 6.454356060606060908e+01
4.882232481060606233e+01 6.246831597222222143e+01 6.461904198232323893e+01
4.896160827020202078e+01 6.271650094696969546e+01 6.477473958333332860e+01
4.905622632575757791e+01 6.289382102272727337e+01 6.489208491161616621e+01
4.911257102272727337e+01 6.309647253787878896e+01 6.496421243686869218e+01
4.926720328282828376e+01 6.331644570707070585e+01 6.511458333333332860e+01
4.934844539141413833e+01 6.350674715909090651e+01 6.522265625000000000e+01
4.941410195707070585e+01 6.369030145202020066e+01 6.530393781565656752e+01
4.926724273989898961e+01 6.353965435606060908e+01 6.511336016414141170e+01
4.867609690656565391e+01 6.238742897727272663e+01 6.436028251262625588e+01
4.798674242424242209e+01 6.098106060606060908e+01 6.357686237373737725e+01
4.758838383838384090e+01 6.002588383838384090e+01 6.309801136363636687e+01
4.741299715909090651e+01 5.965415877525252597e+01 6.291915246212121104e+01
4.738462752525252597e+01 5.953756313131312794e+01 6.284154040404040131e+01
4.736458333333333570e+01 5.952067550505050519e+01 6.282575757575757791e+01
4.738123421717171624e+01 5.953038194444444287e+01 6.282062815656565391e+01
4.740415877525252597e+01 5.961864741161615910e+01 6.287038352272727337e+01
4.751811079545454675e+01 5.978452493686868507e+01 6.300548453282828376e+01
4.750607638888888573e+01 5.983467487373737725e+01 6.302438446969696884e+01
4.757642834595959869e+01 5.988829703282828376e+01 6.305243844696969546e+01
4.755658143939393767e+01 5.992716224747474740e+01 6.308293876262626299e+01
4.761454387626262275e+01 5.997076231060606233e+01 6.312985321969696884e+01
4.770754419191919027e+01 6.013809974747474740e+01 6.325000000000000000e+01
4.781419665404040131e+01 6.033155776515151558e+01 6.336864741161615910e+01
4.797222222222222143e+01 6.058175505050505194e+01 6.356407828282828376e+01
4.805038667929292728e+01 6.077355587121212466e+01 6.367649147727272663e+01
4.817061237373737725e+01 6.101041666666666430e+01 6.383727904040404155e+01
4.826491477272727337e+01 6.120683396464646364e+01 6.396440972222222143e+01
4.833021622474747403e+01 6.137062026515151558e+01 6.401929450757575069e+01
4.844547032828283051e+01 6.159730113636363313e+01 6.417732007575757791e+01
4.844874526515151558e+01 6.172699652777777857e+01 6.427339804292928704e+01
4.853531407828283051e+01 6.192956912878787534e+01 6.432350852272726627e+01
4.870600536616161946e+01 6.212188289141413833e+01 6.446768465909090651e+01
4.877237215909090651e+01 6.228657670454545325e+01 6.455867266414141170e+01
4.881309185606060908e+01 6.244850852272727337e+01 6.467783301767676107e+01
4.896701388888888573e+01 6.268197601010101039e+01 6.479466540404040131e+01
4.902726483585858830e+01 6.285980902777777857e+01 6.489926609848484418e+01
4.907615214646464352e+01 6.300528724747474740e+01 6.496725063131313505e+01
4.918375157828283051e+01 6.325209122474747403e+01 6.510546875000000000e+01
4.924388415404040131e+01 6.334442077020202078e+01 6.512866950757575069e+01
4.902430555555555713e+01 6.302919823232323182e+01 6.485416666666667140e+01
4.840684185606060908e+01 6.186991003787878896e+01 6.409828756313130782e+01
4.785156250000000000e+01 6.069673295454545325e+01 6.350654987373737725e+01
4.758305713383838054e+01 6.002529198232323182e+01 6.314019097222222143e+01
4.746362058080808310e+01 5.978937815656565391e+01 6.303937815656565391e+01
4.749206912878787534e+01 5.976195549242424221e+01 6.302300347222222143e+01
4.749676452020202078e+01 5.976649305555555713e+01 6.300434027777777857e+01
4.754833491161615910e+01 5.985736268939393767e+01 6.308084753787878896e+01
4.764603061868687206e+01 6.002907986111111427e+01 6.318990688131312794e+01
4.768509311868687206e+01 6.008771306818182012e+01 6.321397569444444287e+01
4.768055555555555713e+01 6.014946338383838054e+01 6.326720328282828376e+01
4.769969223484848442e+01 6.014587279040404155e+01 6.323914930555555713e+01
4.772711489898989612e+01 6.019523358585858830e+01 6.328345959595959869e+01
4.780101799242424221e+01 6.031159248737373701e+01 6.335925662878787534e+01
4.785041824494949481e+01 6.047289299242424221e+01 6.345221748737373701e+01
4.797312973484848442e+01 6.068619791666666430e+01 6.361170296717171624e+01
4.806206597222222143e+01 6.087314551767676818e+01 6.374230587121212466e+01
4.816276041666666430e+01 6.112219854797979934e+01 6.385341698232323182e+01
4.827501578282828376e+01 6.128401199494949481e+01 6.397309027777777857e+01
4.836186079545454675e+01 6.144740372474747403e+01 6.406088226010101039e+01
4.843876262626262275e+01 6.161631944444444287e+01 6.417771464646465063e+01
4.845059974747474740e+01 6.170880681818182012e+01 6.420375631313130782e+01
4.849262152777777857e+01 6.192223011363636687e+01 6.432879577020202078e+01
4.859146148989898961e+01 6.204600694444444287e+01 6.443442234848484418e+01
4.873110006313131493e+01 6.226124526515151558e+01 6.454344223484848442e+01
4.886083491161615910e+01 6.249199021464646364e+01 6.470300662878787534e+01
4.879498106060606233e+01 6.245391414141413833e+01 6.461710858585858830e+01
4.832840119949494806e+01 6.178357796717171624e+01 6.411691130050505194e+01
4.781593276515151558e+01 6.067215119949494806e+01 6.351448074494949481e+01
4.753247316919191690e+01 5.998070549242424221e+01 6.308739741161615910e+01
4.742514993686868507e+01 5.967136205808080973e+01 6.294771938131312794e+01
4.740005523989898961e+01 5.963490372474747403e+01 6.294045928030303116e+01
4.742862215909090651e+01 5.969598327020202078e+01 6.296760574494949481e+01
4.753117108585858830e+01 5.985724431818182012e+01 6.307773042929292728e+01
4.764816130050505194e+01 6.013711332070707272e+01 6.322139362373737725e+01
4.771551452020202078e+01 6.021946022727272663e+01 6.328306502525252597e+01
4.771255523989898961e+01 6.025848327020202078e+01 6.329951862373737725e+01
4.772234059343434609e+01 6.024775094696969546e+01 6.329367897727272663e+01
4.772332702020202078e+01 6.025962752525252597e+01 6.330160984848485128e+01
4.776365214646464352e+01 6.032757260101010388e+01 6.337760416666666430e+01
4.785487689393939092e+01 6.049045138888888573e+01 6.348208648989898961e+01
4.802616003787878896e+01 6.070750473484848442e+01 6.363490372474747403e+01
4.801562500000000000e+01 6.087184343434343248e+01 6.372458964646464352e+01
4.817881944444444287e+01 6.112515782828283051e+01 6.388667929292929415e+01
4.825994318181817988e+01 6.133333333333333570e+01 6.396511994949494806e+01
4.833218907828283051e+01 6.147076231060606233e+01 6.406056660353534937e+01
4.841264204545454675e+01 6.165617108585858830e+01 6.417100694444444287e+01
4.846267361111111427e+01 6.176901830808080973e+01 6.423177083333332860e+01
4.855879103535353636e+01 6.194799558080808310e+01 6.434777462121212466e+01
4.858684501262626299e+01 6.208179450757575779e+01 6.441433869949494806e+01
4.874124053030303116e+01 6.229221906565656752e+01 6.457236426767676107e+01
4.881084280303030454e+01 6.246772411616161946e+01 6.465838068181818699e+01
4.885862531565656752e+01 6.261399147727272663e+01 6.470663667929292728e+01
4.863036616161615910e+01 6.226972853535353636e+01 6.440956439393939092e+01
4.801653251262626299e+01 6.118162089646464352e+01 6.372549715909090651e+01
4.759201388888888573e+01 6.012563131313131493e+01 6.315514520202020066e+01
4.726976799242424221e+01 5.952623895202020066e+01 6.277213541666666430e+01
4.725552398989898961e+01 5.935653409090909349e+01 6.271433080808080973e+01
4.724463383838384090e+01 5.936284722222222143e+01 6.272332702020202078e+01
4.725157828282828376e+01 5.936931818181817988e+01 6.272837752525252597e+01
4.737519728535353636e+01 5.954786142676767469e+01 6.283510890151514872e+01
4.747853535353535648e+01 5.972301136363636687e+01 6.295202020202020066e+01
4.752939551767676818e+01 5.984489425505050519e+01 6.301440183080808310e+01
4.751534880050505194e+01 5.984599905303030454e+01 6.299798768939393767e+01
4.753886521464646364e+01 5.988261521464646364e+01 6.301787405303030454e+01
4.755701546717171624e+01 5.990834122474747403e+01 6.303586647727272663e+01
4.758577967171716949e+01 5.999518623737373701e+01 6.311387310606060908e+01
4.773094223484848442e+01 6.024846117424242209e+01 6.329470486111111427e+01
4.781908933080808310e+01 6.041094539141413833e+01 6.339547821969696884e+01
4.792432133838384090e+01 6.066090593434343248e+01 6.357173295454545325e+01
4.800824652777777857e+01 6.083952809343434609e+01 6.367538667929292728e+01
4.816986268939393767e+01 6.106885258838384090e+01 6.382990056818182012e+01
4.824230587121212466e+01 6.123583491161615910e+01 6.390139678030303116e+01
4.828527462121212466e+01 6.139401830808080973e+01 6.399139835858586167e+01
4.840786773989898961e+01 6.159899779040404155e+01 6.411209753787878185e+01
4.843872316919191690e+01 6.175011837121212466e+01 6.419850852272726627e+01
4.852687026515151558e+01 6.194937657828283051e+01 6.430780460858585457e+01
4.863147095959595845e+01 6.208585858585858830e+01 6.440640782828282340e+01
4.872967960858586167e+01 6.231869476010101039e+01 6.454580965909090651e+01
4.885258838383838054e+01 6.250173611111111427e+01 6.466698232323231821e+01
4.887945864898989612e+01 6.267680713383838054e+01 6.472683869949494806e+01
4.900520833333333570e+01 6.288289141414141170e+01 6.484895833333332860e+01
4.904296875000000000e+01 6.305954071969696884e+01 6.490187026515151558e+01
4.916954703282828376e+01 6.329817708333333570e+01 6.505133364898989612e+01
4.918241003787878896e+01 6.343130523989898961e+01 6.507066761363635976e+01
4.888158933080808310e+01 6.292404513888888573e+01 6.471113478535353636e+01
4.821208175505050519e+01 6.157919034090909349e+01 6.384876104797979934e+01
4.760909880050505194e+01 6.019274779040404155e+01 6.313624526515151558e+01
4.725465593434343248e+01 5.947419507575757791e+01 6.272324810606060908e+01
4.711793718434343248e+01 5.917065183080808310e+01 6.256758996212121104e+01
4.705784406565656752e+01 5.901712436868687206e+01 6.247277462121212466e+01
4.701219223484848442e+01 5.895048137626262275e+01 6.239966066919191690e+01
4.701598011363636687e+01 5.896058238636363313e+01 6.241449652777777857e+01
4.720024463383838054e+01 5.915005523989898961e+01 6.253673453282828376e+01
4.722072285353535648e+01 5.927848800505050519e+01 6.261245265151514872e+01
4.731845801767676818e+01 5.938585069444444287e+01 6.271239741161615910e+01
4.731664299242424221e+01 5.941402304292929415e+01 6.272636521464646364e+01
4.737428977272727337e+01 5.946204229797979934e+01 6.276822916666666430e+01
4.741066919191919027e+01 5.961679292929292728e+01 6.288178661616161946e+01
4.755713383838384090e+01 5.977730429292929415e+01 6.299857954545454675e+01
4.762160669191919027e+01 6.003511679292929415e+01 6.315569760101010388e+01
4.776388888888888573e+01 6.021196338383838054e+01 6.326546717171716949e+01
4.783475378787878896e+01 6.046369949494949481e+01 6.342866161616161946e+01
4.796460700757575779e+01 6.063995422979797922e+01 6.357224589646464352e+01
4.803697127525252597e+01 6.082342960858586167e+01 6.367885890151514872e+01
4.813080018939393767e+01 6.097297190656565391e+01 6.377473958333333570e+01
4.818742108585858830e+01 6.115569760101010388e+01 6.385045770202020066e+01
4.828413036616161946e+01 6.133274147727272663e+01 6.395142834595959869e+01
4.835093118686868507e+01 6.146993371212121104e+01 6.405074179292928704e+01
4.848654513888888573e+01 6.167783301767676818e+01 6.418682922979797922e+01
4.855871212121212466e+01 6.185653409090909349e+01 6.431549873737374412e+01
4.861841066919191690e+01 6.204565183080808310e+01 6.440092329545454675e+01
4.869251104797979934e+01 6.220671559343434609e+01 6.450059185606060908e+01
4.876396780303030454e+01 6.234793244949494806e+01 6.458467487373737015e+01
4.888174715909090651e+01 6.257745422979797922e+01 6.471839488636364024e+01
4.893402777777777857e+01 6.273721590909090651e+01 6.475789141414141170e+01
4.905184659090909349e+01 6.296172664141413833e+01 6.488612689393939092e+01
4.881218434343434609e+01 6.267866161616161946e+01 6.464583333333332860e+01
4.820553188131312794e+01 6.150777304292929415e+01 6.387393465909090651e+01
4.762034406565656752e+01 6.014291351010101039e+01 6.312081755050505194e+01
4.718020044191919027e+01 5.932050978535353636e+01 6.262574968434343248e+01
4.705287247474747403e+01 5.899005681818182012e+01 6.247190656565656752e+01
4.701653251262626299e+01 5.889942392676767469e+01 6.242104640151514872e+01
4.703507733585858830e+01 5.889145359848485128e+01 6.240202809343434609e+01
4.704127209595959869e+01 5.890269886363636687e+01 6.239670138888888573e+01
4.717566287878787534e+01 5.912231691919191690e+01 6.255823863636363313e+01
4.725086805555555713e+01 5.927785669191919027e+01 6.265522411616161946e+01
4.732930871212121104e+01 5.937634154040404155e+01 6.272198547979797922e+01
4.736225536616161946e+01 5.944732481060606233e+01 6.277071496212121104e+01
4.737109375000000000e+01 5.949072758838384090e+01 6.279186395202020066e+01
4.750351167929292728e+01 5.962346117424242209e+01 6.291702178030303116e+01
4.756064551767676818e+01 5.978065814393939092e+01 6.302450284090909349e+01
4.763186553030303116e+01 6.001712436868687206e+01 6.318458017676767469e+01
4.778105271464646364e+01 6.025169665404040131e+01 6.334576231060606233e+01
4.784398674242424221e+01 6.047230113636363313e+01 6.348192866161615910e+01
4.803681344696969546e+01 6.069669349747474740e+01 6.364918718434343248e+01
4.806743213383838054e+01 6.086730587121212466e+01 6.374277935606060908e+01
4.817724116161615910e+01 6.105255681818182012e+01 6.386284722222222143e+01
4.822948232323232531e+01 6.124542297979797922e+01 6.396433080808080973e+01
4.831013257575757791e+01 6.140135732323232531e+01 6.407496843434343248e+01
4.843469854797979934e+01 6.162630208333333570e+01 6.420995107323231821e+01
4.855922506313131493e+01 6.181238162878787534e+01 6.431222380050505194e+01
4.865222537878787534e+01 6.204805871212121104e+01 6.448129734848484418e+01
4.867388731060606233e+01 6.219330018939393767e+01 6.455346433080808310e+01
4.868892045454545325e+01 6.222932449494949481e+01 6.455034722222222854e+01
4.827959280303030454e+01 6.148982007575757791e+01 6.404569128787878185e+01
4.778630050505050519e+01 6.043623737373737725e+01 6.341666666666666430e+01
4.744803503787878896e+01 5.972028882575757791e+01 6.303768150252525260e+01
4.726140309343434609e+01 5.944180082070707272e+01 6.288719223484848442e+01
4.734730113636363313e+01 5.942226957070707272e+01 6.291106376262626299e+01
4.736284722222222143e+01 5.945738636363636687e+01 6.291840277777777857e+01
4.746634311868687206e+01 5.957887468434343248e+01 6.302821180555555713e+01
4.756005366161615910e+01 5.977690972222222143e+01 6.315190972222222143e+01
4.767408459595959869e+01 5.997190656565656752e+01 6.326010101010101039e+01
4.767562342171716949e+01 6.006908933080808310e+01 6.332066761363636687e+01
4.773883364898989612e+01 6.008463541666666430e+01 6.335578440656565391e+01
4.773800505050505194e+01 6.015435606060606233e+01 6.339962121212121104e+01
4.781226325757575779e+01 6.028196022727272663e+01 6.347356376262626299e+01
4.792530776515151558e+01 6.051811079545454675e+01 6.363727114898989612e+01
4.804943970959595845e+01 6.072841698232323182e+01 6.379360006313131493e+01
4.814346590909090651e+01 6.097348484848485128e+01 6.394981060606060908e+01
4.822577335858586167e+01 6.117526830808080973e+01 6.409019886363635976e+01
4.839176925505050519e+01 6.138955965909090651e+01 6.422841698232323893e+01
4.843777619949494806e+01 6.159008049242424221e+01 6.434907670454545325e+01
4.852446338383838054e+01 6.176404671717171624e+01 6.443465909090909349e+01
4.865155460858586167e+01 6.200351167929292728e+01 6.457216698232323893e+01
4.869093276515151558e+01 6.214863478535353636e+01 6.466725852272726627e+01
4.881017203282828376e+01 6.234031723484848442e+01 6.477450284090909349e+01
4.893414614898989612e+01 6.258045296717171624e+01 6.490447443181818699e+01
4.904146938131312794e+01 6.278168402777777857e+01 6.504099589646465063e+01
4.911643781565656752e+01 6.299143781565656752e+01 6.514863478535353636e+01
4.920841224747474740e+01 6.316627209595959869e+01 6.525276199494949481e+01
4.929584911616161946e+01 6.340948547979797922e+01 6.537208017676768179e+01
4.939259785353535648e+01 6.359682765151514872e+01 6.547024936868686495e+01
4.945312500000000000e+01 6.377272727272727337e+01 6.556613005050505194e+01
4.959998421717171624e+01 6.399865845959595845e+01 6.570667613636364024e+01
4.965920928030303116e+01 6.417625473484848442e+01 6.578278882575757791e+01
4.972324810606060908e+01 6.436734532828282340e+01 6.584809027777777146e+01
4.950098642676767469e+01 6.407848011363635976e+01 6.561699021464646364e+01
4.907165404040404155e+01 6.318292297979797922e+01 6.514520202020202078e+01
4.869910037878787534e+01 6.233467487373737725e+01 6.472624684343433898e+01
4.856143465909090651e+01 6.194085385101010388e+01 6.460941445707071296e+01
4.851929450757575779e+01 6.183132102272727337e+01 6.458731849747475451e+01
4.854943970959595845e+01 6.182627051767676818e+01 6.458337279040404155e+01
4.859307922979797922e+01 6.186122948232323182e+01 6.462117266414141170e+01
4.864113794191919027e+01 6.193185763888888573e+01 6.467049400252524549e+01
4.871551452020202078e+01 6.207741477272727337e+01 6.475086805555555713e+01
4.864741161616161946e+01 6.211190025252525260e+01 6.470612373737374412e+01
4.866512784090909349e+01 6.212977430555555713e+01 6.467522885101010388e+01
4.868020044191919027e+01 6.211201862373737725e+01 6.468793402777777146e+01
4.867881944444444287e+01 6.210669191919191690e+01 6.469460227272726627e+01
4.872095959595959869e+01 6.221748737373737725e+01 6.476736111111111427e+01
4.875114425505050519e+01 6.236146622474747403e+01 6.484489425505050519e+01
4.889334753787878896e+01 6.255575284090909349e+01 6.494022253787878185e+01
4.890964330808080973e+01 6.270004734848485128e+01 6.497956123737374412e+01
4.908621369949494806e+01 6.289192708333333570e+01 6.511493844696970257e+01
4.910633680555555713e+01 6.300185448232323182e+01 6.518824968434343248e+01
4.921638257575757791e+01 6.321575126262626299e+01 6.533222853535353636e+01
4.926041666666666430e+01 6.331833964646464352e+01 6.536505681818181301e+01
4.932406092171716949e+01 6.343864425505050519e+01 6.540628945707071296e+01
4.941031407828283051e+01 6.364910827020202078e+01 6.553689236111111427e+01
4.947470801767676818e+01 6.379557291666666430e+01 6.559812973484848442e+01
4.961470170454545325e+01 6.398275726010101039e+01 6.572186710858585457e+01
4.961963383838384090e+01 6.406455176767676107e+01 6.572601010101010388e+01
4.933337279040404155e+01 6.366465435606060908e+01 6.545916193181818699e+01
4.896504103535353636e+01 6.291469381313131493e+01 6.501144255050505194e+01
4.871953914141413833e+01 6.237200126262626299e+01 6.478488005050505194e+01
4.873327020202020066e+01 6.213494318181817988e+01 6.474226641414141170e+01
4.862744633838384090e+01 6.202911931818182012e+01 6.469262941919191690e+01
4.870273042929292728e+01 6.205815972222222143e+01 6.473887310606060908e+01
4.865254103535353636e+01 6.208483270202020066e+01 6.471172664141414543e+01
4.877833017676767469e+01 6.220478219696969546e+01 6.482031250000000000e+01
4.879880839646464352e+01 6.230306976010101039e+01 6.484363162878787534e+01
4.883917297979797922e+01 6.236237373737373701e+01 6.485101010101010388e+01
4.882449494949494806e+01 6.236947601010101039e+01 6.487042297979797922e+01
4.883585858585858830e+01 6.239204545454545325e+01 6.485258838383838054e+01
4.887539457070707272e+01 6.246977588383838054e+01 6.490317234848484418e+01
4.891891571969696884e+01 6.255812026515151558e+01 6.495111268939393767e+01
4.901680871212121104e+01 6.275370896464646364e+01 6.507883522727273373e+01
4.910606060606060908e+01 6.289520202020202078e+01 6.514125631313130782e+01
4.918351483585858830e+01 6.309402619949494806e+01 6.525911458333332860e+01
4.926688762626262275e+01 6.321385732323232531e+01 6.532449494949494806e+01
4.929833491161615910e+01 6.337709122474747403e+01 6.538656092171717660e+01
4.939342645202020066e+01 6.351858428030303116e+01 6.547060448232323893e+01
4.941934974747474740e+01 6.357717803030303116e+01 6.548879419191919737e+01
4.953038194444444287e+01 6.376475694444444287e+01 6.560834911616161946e+01
4.954028566919191690e+01 6.389082228535353636e+01 6.562219854797979224e+01
4.967901672979797922e+01 6.407690183080808310e+01 6.574577809343433898e+01
4.972648358585858830e+01 6.423816287878787534e+01 6.583506944444444287e+01
4.980555555555555713e+01 6.442976641414141170e+01 6.593244949494949481e+01
4.993383049242424221e+01 6.463948074494949481e+01 6.605346433080808310e+01
4.995182291666666430e+01 6.474112215909090651e+01 6.609607796717172334e+01
5.006253945707070585e+01 6.497573390151515582e+01 6.622036773989898961e+01
5.017716224747474740e+01 6.512823547979797922e+01 6.630894886363635976e+01
5.023764993686868507e+01 6.531577493686869218e+01 6.641457544191919737e+01
5.035949337121212466e+01 6.545750473484848442e+01 6.649270044191919737e+01
5.031814236111111427e+01 6.559955018939393767e+01 6.656656407828282340e+01
5.051649305555555713e+01 6.579758522727273373e+01 6.670478219696970257e+01
5.034611742424242209e+01 6.557007575757575069e+01 6.650410353535353636e+01
4.988912563131312794e+01 6.479442866161616621e+01 6.596014835858585457e+01
4.952990845959595845e+01 6.391974431818182012e+01 6.562634154040404155e+01
4.933972537878787534e+01 6.343189709595959869e+01 6.545746527777777146e+01
4.926972853535353636e+01 6.324747474747474740e+01 6.540972222222222854e+01
4.923445391414141170e+01 6.316642992424242209e+01 6.540127840909090651e+01
4.924952651515151558e+01 6.310653409090909349e+01 6.538368055555555713e+01
4.922679924242424221e+01 6.302651515151514872e+01 6.535606060606060908e+01
4.924644886363636687e+01 6.305989583333333570e+01 6.539859532828282340e+01
4.927904040404040131e+01 6.307023358585858830e+01 6.538731060606060908e+01
4.922529987373737725e+01 6.308104482323232531e+01 6.539906881313130782e+01
4.927197758838384090e+01 6.308053188131312794e+01 6.538940183080808310e+01
4.927020202020202078e+01 6.306470959595959869e+01 6.538936237373737015e+01
4.933195233585858830e+01 6.312393465909090651e+01 6.545411142676768179e+01
4.935984848484848442e+01 6.319034090909090651e+01 6.548311237373737015e+01
4.944779829545454675e+01 6.333179450757575779e+01 6.556837910353534937e+01
4.944479955808080973e+01 6.340944602272727337e+01 6.559363162878787534e+01
4.957654671717171624e+01 6.358207070707070585e+01 6.572758838383838054e+01
4.957911142676767469e+01 6.369511521464646364e+01 6.578302556818181301e+01
4.963940183080808310e+01 6.378255208333333570e+01 6.581080334595959869e+01
4.973784722222222143e+01 6.391398358585858830e+01 6.590056818181818699e+01
4.975804924242424221e+01 6.400836489898989612e+01 6.595075757575757791e+01
4.984528882575757791e+01 6.417372948232323893e+01 6.603468276515151558e+01
4.985104955808080973e+01 6.426755839646465063e+01 6.604675662878787534e+01
4.992578125000000000e+01 6.444030145202020776e+01 6.617073074494949481e+01
5.002797506313131493e+01 6.456459122474747403e+01 6.622005208333332860e+01
5.009378945707070585e+01 6.469669349747475451e+01 6.632358743686869218e+01
5.015593434343434609e+01 6.484738005050505194e+01 6.637894570707071296e+01
5.019377367424242209e+01 6.498480902777777146e+01 6.647818023989898961e+01
5.033731849747474740e+01 6.513340435606060908e+01 6.656269728535353636e+01
5.032934816919191690e+01 6.523875473484848442e+01 6.661044034090909349e+01
5.042921401515151558e+01 6.540853851010101039e+01 6.670588699494949481e+01
5.044377367424242209e+01 6.550611584595959869e+01 6.671681660353534937e+01
5.030977746212121104e+01 6.526590119949494806e+01 6.656182922979797922e+01
4.992842487373737725e+01 6.444499684343433898e+01 6.611245265151515582e+01
4.950603693181817988e+01 6.357169349747474740e+01 6.569842960858585457e+01
4.931435448232323182e+01 6.307871685606060908e+01 6.554178503787878185e+01
4.923603219696969546e+01 6.281605113636363313e+01 6.548271780303029743e+01
4.922652304292929415e+01 6.275193339646464352e+01 6.545348011363635976e+01
4.914591224747474740e+01 6.263439078282828376e+01 6.540696022727273373e+01
4.919862689393939092e+01 6.263375946969696884e+01 6.541800820707071296e+01
4.920971433080808310e+01 6.265668402777777857e+01 6.545371685606060908e+01
4.922892992424242209e+01 6.269278724747474740e+01 6.544941603535353636e+01
4.925023674242424221e+01 6.268978851010101039e+01 6.544120896464646364e+01
4.914208491161615910e+01 6.261225536616161946e+01 6.538656092171717660e+01
4.922376104797979934e+01 6.261912089646464352e+01 6.542246685606060908e+01
4.922088068181817988e+01 6.264701704545454675e+01 6.544547032828282340e+01
4.932039141414141170e+01 6.276720328282828376e+01 6.555050505050505194e+01
4.942641256313131493e+01 6.291410195707070585e+01 6.564311079545454675e+01
4.943809185606060908e+01 6.300611584595959869e+01 6.569314236111111427e+01
4.954166666666666430e+01 6.316366792929292728e+01 6.579861111111111427e+01
4.952379261363636687e+01 6.326669034090909349e+01 6.586659564393939092e+01
4.964318970959595845e+01 6.343201546717171624e+01 6.593895991161616621e+01
4.969764046717171624e+01 6.352324021464646364e+01 6.599893465909090651e+01
4.970928030303030454e+01 6.361079545454545325e+01 6.603140782828282340e+01
4.978436710858586167e+01 6.375311710858586167e+01 6.612259311868686495e+01
4.983660827020202078e+01 6.384986584595959869e+01 6.617436079545454675e+01
4.994081439393939092e+01 6.398674242424242209e+01 6.626073232323231821e+01
5.001937342171716949e+01 6.416362847222222854e+01 6.635097064393939092e+01
5.005070233585858830e+01 6.427639678030303116e+01 6.639555713383838054e+01
5.004644097222222143e+01 6.428886521464646364e+01 6.638624526515151558e+01
4.966840277777777857e+01 6.368702651515151558e+01 6.600899621212121815e+01
4.931553819444444287e+01 6.287109375000000000e+01 6.560909880050505194e+01
4.910613952020202078e+01 6.231605113636363313e+01 6.533814709595959869e+01
4.900769412878787534e+01 6.205804135101010388e+01 6.521792140151515582e+01
4.903231534090909349e+01 6.201306029040404155e+01 6.523417771464646364e+01
4.901542771464646364e+01 6.201432291666666430e+01 6.521018781565656752e+01
4.906336805555555713e+01 6.205232007575757791e+01 6.525023674242424931e+01
4.912322443181817988e+01 6.218319917929292728e+01 6.530756786616161946e+01
4.914820075757575779e+01 6.221906565656565391e+01 6.532796717171717660e+01
4.915005523989898961e+01 6.226653251262626299e+01 6.535349589646465063e+01
4.910432449494949481e+01 6.223532196969696884e+01 6.532591540404040131e+01
4.915112058080808310e+01 6.228038194444444287e+01 6.536971275252524549e+01
4.917984532828283051e+01 6.233057133838384090e+01 6.542432133838383379e+01
4.923607165404040131e+01 6.242767518939393767e+01 6.549412089646465063e+01
4.937196180555555713e+01 6.263411458333333570e+01 6.562432922979797922e+01
4.939681976010101039e+01 6.274972380050505194e+01 6.570584753787878185e+01
4.951822916666666430e+01 6.293631628787878896e+01 6.583672664141414543e+01
4.954833491161615910e+01 6.306190814393939092e+01 6.589145359848484418e+01
4.959769570707070585e+01 6.319917929292929415e+01 6.596969696969696884e+01
4.966489109848485128e+01 6.331908933080808310e+01 6.607587594696970257e+01
4.973839962121212466e+01 6.344389204545454675e+01 6.609556502525252597e+01
4.982394255050505194e+01 6.361387310606060908e+01 6.621898674242424931e+01
4.988703440656565391e+01 6.370900410353535648e+01 6.626045612373737015e+01
4.999384469696969546e+01 6.389788510101010388e+01 6.640388257575757791e+01
5.003499842171716949e+01 6.403705018939393767e+01 6.646539614898989612e+01
5.009449968434343248e+01 6.417246685606060908e+01 6.652395044191919737e+01
5.017100694444444287e+01 6.431321022727273373e+01 6.660945391414141170e+01
5.022956123737373701e+01 6.445257260101010388e+01 6.666658775252524549e+01
5.030729166666666430e+01 6.461284722222222854e+01 6.675236742424242209e+01
5.035321969696969546e+01 6.475205176767676107e+01 6.686316287878787534e+01
5.046772411616161946e+01 6.493805239898989612e+01 6.693836805555555713e+01
5.042791193181817988e+01 6.496058238636364024e+01 6.691528566919191690e+01
5.014579387626262275e+01 6.446129261363635976e+01 6.660980902777777146e+01
4.966765309343434609e+01 6.345111268939393767e+01 6.598930713383838054e+01
4.935120738636363313e+01 6.269322127525252597e+01 6.562866950757575069e+01
4.918880208333333570e+01 6.233211016414141170e+01 6.548804450757575069e+01
4.914859532828283051e+01 6.219594381313131493e+01 6.540538194444444287e+01
4.915794665404040131e+01 6.221871054292929415e+01 6.543020044191919737e+01
4.915707859848485128e+01 6.223788667929292728e+01 6.543280460858585457e+01
4.931774779040404155e+01 6.241055082070707272e+01 6.556948390151515582e+01
4.934323705808080973e+01 6.251511205808080973e+01 6.561059816919191690e+01
4.935278566919191690e+01 6.254533617424242209e+01 6.561462279040404155e+01
4.930883049242424221e+01 6.252016256313131493e+01 6.558360953282827666e+01
4.926925505050505194e+01 6.247222222222222143e+01 6.556297348484848442e+01
4.933562184343434609e+01 6.252185921717171624e+01 6.560487689393939092e+01
4.937602588383838054e+01 6.260803345959595845e+01 6.566264204545454675e+01
4.954580965909090651e+01 6.282469223484848442e+01 6.582248263888888573e+01
4.956818181818182012e+01 6.295233585858586167e+01 6.589741161616161946e+01
4.961063762626262275e+01 6.311631944444444287e+01 6.597727272727273373e+01
4.971006944444444287e+01 6.328203914141413833e+01 6.610637626262625588e+01
4.976830808080808310e+01 6.339583333333333570e+01 6.617613636363635976e+01
4.981747159090909349e+01 6.357346906565656752e+01 6.628969381313130782e+01
4.984524936868687206e+01 6.366090593434343248e+01 6.630815972222222854e+01
4.996488320707070585e+01 6.383420138888888573e+01 6.641264204545454675e+01
5.004292929292929415e+01 6.392424242424242209e+01 6.650536616161616621e+01
5.009599905303030454e+01 6.409899779040404155e+01 6.656869476010101039e+01
5.007299558080808310e+01 6.407473169191919737e+01 6.653937815656566102e+01
4.970675505050505194e+01 6.344349747474747403e+01 6.610590277777777146e+01
4.926096906565656752e+01 6.258972537878787534e+01 6.558956755050505194e+01
4.898504577020202078e+01 6.190723642676767469e+01 6.525288036616161946e+01
4.888502209595959869e+01 6.167511047979797922e+01 6.510045770202020776e+01
4.886580650252525260e+01 6.160917771464646364e+01 6.506735321969696884e+01
4.891931029040404155e+01 6.162038352272727337e+01 6.508092645202020776e+01
4.897391887626262275e+01 6.174806660353535648e+01 6.515605271464646364e+01
4.901700599747474740e+01 6.187827493686868507e+01 6.519361584595959869e+01
4.908341224747474740e+01 6.201065340909090651e+01 6.530026830808080263e+01
4.910621843434343248e+01 6.202777777777777857e+01 6.527714646464646364e+01
4.909086963383838054e+01 6.205898832070707272e+01 6.529715119949494806e+01
4.910819128787878896e+01 6.208088699494949481e+01 6.531731376262625588e+01
4.919436553030303116e+01 6.220004734848485128e+01 6.540553977272726627e+01
4.927734375000000000e+01 6.236699021464646364e+01 6.550729955808080263e+01
4.939760890151514872e+01 6.254723011363636687e+01 6.565013415404040131e+01
4.947664141414141170e+01 6.278756313131312794e+01 6.578267045454545325e+01
4.952233270202020066e+01 6.293110795454545325e+01 6.588596906565656752e+01
4.965956439393939092e+01 6.313967803030303116e+01 6.603203914141414543e+01
4.972364267676767469e+01 6.327051767676767469e+01 6.609359217171717660e+01
4.980366161616161946e+01 6.344507575757575779e+01 6.619633838383838054e+01
4.985495580808080973e+01 6.357733585858586167e+01 6.627272727272726627e+01
4.997017045454545325e+01 6.376325757575757791e+01 6.642077020202020776e+01
5.004896622474747403e+01 6.393611900252525260e+01 6.651140309343433898e+01
5.010254892676767469e+01 6.403310448232323893e+01 6.655898832070707272e+01
5.012456597222222143e+01 6.424719854797979224e+01 6.665739425505050519e+01
5.022435290404040131e+01 6.435282512626262985e+01 6.670178345959595845e+01
