5.224404198232323182e+01 5.997636521464646364e+01 6.461730587121212466e+01
5.243481691919191690e+01 6.016998106060606233e+01 6.472190656565656752e+01
5.257812500000000000e+01 6.037357954545454675e+01 6.491824494949494806e+01
5.272115688131312794e+01 6.056822127525252597e+01 6.510657354797979224e+01
5.276341540404040131e+01 6.077083333333333570e+01 6.521827651515151558e+01
5.283558238636363313e+01 6.097478693181817988e+01 6.528712910353534937e+01
5.302260890151514872e+01 6.117617582070707272e+01 6.539429450757575069e+01
5.304087752525252597e+01 6.140041035353535648e+01 6.551530934343433898e+01
5.317151988636363313e+01 6.162843276515151558e+01 6.560791508838383379e+01
5.333183396464646364e+01 6.184651199494949481e+01 6.571946022727273373e+01
5.340632891414141170e+01 6.209872159090909349e+01 6.583641098484848442e+01
5.351262626262626299e+01 6.231581439393939092e+01 6.593292297979797922e+01
5.364820075757575779e+01 6.255334595959595845e+01 6.601830808080808310e+01
5.374214804292929415e+01 6.277702809343434609e+01 6.612188289141414543e+01
5.391354955808080973e+01 6.304723011363636687e+01 6.624751420454545325e+01
5.394176136363636687e+01 6.323895202020202078e+01 6.625299873737374412e+01
5.406238162878787534e+01 6.348157354797979934e+01 6.633984375000000000e+01
5.428010574494949481e+01 6.375437973484848442e+01 6.649569917929292728e+01
5.434240845959595845e+01 6.395793876262626299e+01 6.654158775252524549e+01
5.449380523989898961e+01 6.416173453282827666e+01 6.663821811868686495e+01
5.406419665404040131e+01 6.361328125000000000e+01 6.619456281565656752e+01
5.340033143939393767e+01 6.241216856060606233e+01 6.550844381313130782e+01
5.297411616161615910e+01 6.153140782828283051e+01 6.518970959595959869e+01
5.285223327020202078e+01 6.125564236111111427e+01 6.511549084595959869e+01
5.274455492424242209e+01 6.097514204545454675e+01 6.498839962121212466e+01
5.252967171717171624e+01 6.059785353535353636e+01 6.477241161616161946e+01
5.241031407828283051e+01 6.029667771464646364e+01 6.466015625000000000e+01
5.247238005050505194e+01 6.033159722222222143e+01 6.469791666666667140e+01
5.273370422979797922e+01 6.074633049242424221e+01 6.498559816919191690e+01
5.275958806818182012e+01 6.086343907828283051e+01 6.503326231060606233e+01
5.276144255050505194e+01 6.085440340909090651e+01 6.499708017676768179e+01
5.242242739898989612e+01 6.060266729797979934e+01 6.474060921717172334e+01
5.248599273989898961e+01 6.077087279040404155e+01 6.488008996212121815e+01
5.263372001262626299e+01 6.098630839646464352e+01 6.500887784090909349e+01
5.272825915404040131e+01 6.113735006313131493e+01 6.507990056818181301e+01
5.283526672979797922e+01 6.142696496212121104e+01 6.525351167929292728e+01
5.294322127525252597e+01 6.161351799242424221e+01 6.533652935606060908e+01
5.299550189393939092e+01 6.177769886363636687e+01 6.540048926767676107e+01
5.312286931818182012e+01 6.195793876262626299e+01 6.547230113636364024e+01
5.318880208333333570e+01 6.211904198232323182e+01 6.557027304292928704e+01
5.331289457070707272e+01 6.230705492424242209e+01 6.564906881313130782e+01
5.339630681818182012e+01 6.250205176767676818e+01 6.570059974747475451e+01
5.351483585858586167e+01 6.274889520202020066e+01 6.578724747474747403e+01
5.356727430555555713e+01 6.292459753787878896e+01 6.579375789141414543e+01
5.371807922979797922e+01 6.315352746212121104e+01 6.591946811868686495e+01
5.381265782828283051e+01 6.332528409090909349e+01 6.595486111111111427e+01
5.387890625000000000e+01 6.349601483585858830e+01 6.604257417929292728e+01
5.399143781565656752e+01 6.369487847222222143e+01 6.616615372474747403e+01
5.406822127525252597e+01 6.385152304292929415e+01 6.623157354797979224e+01
5.419298453282828376e+01 6.403184185606060908e+01 6.632366635101010388e+01
5.422695707070707272e+01 6.413068181818181301e+01 6.632023358585858830e+01
5.373082386363636687e+01 6.339212436868687206e+01 6.576822916666667140e+01
5.304277146464646364e+01 6.213131313131312794e+01 6.511442550505050519e+01
5.264338699494949481e+01 6.127485795454545325e+01 6.477801452020202078e+01
5.249877683080808310e+01 6.091923137626262275e+01 6.472762784090909349e+01
5.233633207070707272e+01 6.057370580808080973e+01 6.455224116161616621e+01
5.218091066919191690e+01 6.013545612373737725e+01 6.434647253787878185e+01
5.201017992424242209e+01 5.982473169191919027e+01 6.418710542929292728e+01
5.214149305555555713e+01 5.996488320707070585e+01 6.434745896464646364e+01
5.230622632575757791e+01 6.026266571969696884e+01 6.455796243686869218e+01
5.227103061868687206e+01 6.024640940656565391e+01 6.449293718434343248e+01
5.222518150252525260e+01 6.020355902777777857e+01 6.448370422979797922e+01
5.225209122474747403e+01 6.021373895202020066e+01 6.448125789141414543e+01
5.231589330808080973e+01 6.036687184343434609e+01 6.460361426767676107e+01
5.243678977272727337e+01 6.058499053030303116e+01 6.475718118686869218e+01
5.252986900252525260e+01 6.076550662878787534e+01 6.485720486111111427e+01
5.268091066919191690e+01 6.094053819444444287e+01 6.498236268939393767e+01
5.266082702020202078e+01 6.109122474747474740e+01 6.502477904040404155e+01
5.280883049242424221e+01 6.125864109848485128e+01 6.512354008838383379e+01
5.285164141414141170e+01 6.140151515151514872e+01 6.520549242424242209e+01
5.298271780303030454e+01 6.157646780303030454e+01 6.529000946969696884e+01
5.305914614898989612e+01 6.172265625000000000e+01 6.538143150252524549e+01
5.315546085858586167e+01 6.187468434343434609e+01 6.545391414141414543e+01
5.327990845959595845e+01 6.214496527777777857e+01 6.556668244949494806e+01
5.340171243686868507e+01 6.235168087121212466e+01 6.564887152777777146e+01
5.349037247474747403e+01 6.252035984848485128e+01 6.570707070707071296e+01
5.343615845959595845e+01 6.254174558080808310e+01 6.563328598484848442e+01
5.283885732323232531e+01 6.159201388888888573e+01 6.502951388888888573e+01
5.226404671717171624e+01 6.035116792929292728e+01 6.438920454545454675e+01
5.189563604797979934e+01 5.962574968434343248e+01 6.406182922979797922e+01
5.179060132575757791e+01 5.929565183080808310e+01 6.394022253787878896e+01
5.154577020202020066e+01 5.889125631313131493e+01 6.374826388888888573e+01
5.137156723484848442e+01 5.846689551767676818e+01 6.356380208333333570e+01
5.118797348484848442e+01 5.821606691919191690e+01 6.344570707070707272e+01
5.143154198232323182e+01 5.846121369949494806e+01 6.365928819444444287e+01
5.165861742424242209e+01 5.889078282828283051e+01 6.392550505050505194e+01
5.162930082070707272e+01 5.893959122474747403e+01 6.388987531565656752e+01
5.163853377525252597e+01 5.896050347222222143e+01 6.390542140151514872e+01
5.172151199494949481e+01 5.907125946969696884e+01 6.397356376262626299e+01
5.192704387626262275e+01 5.931751104797979934e+01 6.413995422979797922e+01
5.200564236111111427e+01 5.953373579545454675e+01 6.426148200757575069e+01
5.212835385101010388e+01 5.980212279040404155e+01 6.437677556818181301e+01
5.229979482323232531e+01 6.002896148989898961e+01 6.452391098484848442e+01
5.229794034090909349e+01 6.021981534090909349e+01 6.457666508838383379e+01
5.248323074494949481e+01 6.043256786616161946e+01 6.473086332070707272e+01
5.252217487373737725e+01 6.060408775252525260e+01 6.481147411616161946e+01
5.264764835858586167e+01 6.083751578282828376e+01 6.494625946969696884e+01
5.275394570707070585e+01 6.104924242424242209e+01 6.506202651515151558e+01
5.285799400252525260e+01 6.125098642676767469e+01 6.514429450757575069e+01
5.299412089646464352e+01 6.152679135101010388e+01 6.533360953282827666e+01
5.310491635101010388e+01 6.170608428030303116e+01 6.540431660353534937e+01
5.324025410353535648e+01 6.196752683080808310e+01 6.553302556818181301e+01
5.332339015151514872e+01 6.218229166666666430e+01 6.559611742424242209e+01
5.343552714646464352e+01 6.241958648989898961e+01 6.564591224747475451e+01
5.354975536616161946e+01 6.266102430555555713e+01 6.572967960858585457e+01
5.369519412878787534e+01 6.295419034090909349e+01 6.582319286616161946e+01
5.377718592171716949e+01 6.317349273989898961e+01 6.591481218434343248e+01
5.375422190656565391e+01 6.320103377525252597e+01 6.587622316919191690e+01
5.321464646464646364e+01 6.230602904040404155e+01 6.523737373737374412e+01
5.241631155303030454e+01 6.087211963383838054e+01 6.452805397727273373e+01
5.217203282828283051e+01 6.014378156565656752e+01 6.429071969696970257e+01
5.203854955808080973e+01 5.992649147727272663e+01 6.420379577020202078e+01
5.189946338383838054e+01 5.956676136363636687e+01 6.406518308080808310e+01
5.162472380050505194e+01 5.921594854797979934e+01 6.386336016414141170e+01
5.151396780303030454e+01 5.889780618686868507e+01 6.372151199494949481e+01
5.164887152777777857e+01 5.906048768939393767e+01 6.387503945707070585e+01
5.197585227272727337e+01 5.954403409090909349e+01 6.418197601010101039e+01
5.208195233585858830e+01 5.983195233585858830e+01 6.430575284090909349e+01
5.205831755050505194e+01 5.986466224747474740e+01 6.430721275252524549e+01
5.211276830808080973e+01 5.998429608585858830e+01 6.438833648989898961e+01
5.227979008838384090e+01 6.026384943181817988e+01 6.455993529040404155e+01
5.239251893939393767e+01 6.052809343434343248e+01 6.470896464646465063e+01
5.256068497474747403e+01 6.084114583333333570e+01 6.487523674242424931e+01
5.269479955808080973e+01 6.109868213383838054e+01 6.501124526515151558e+01
5.279387626262626299e+01 6.136410984848485128e+01 6.509659090909090651e+01
5.292365056818182012e+01 6.163687657828283051e+01 6.527544981060606233e+01
5.305145202020202078e+01 6.188352272727272663e+01 6.535858585858585457e+01
5.321563289141413833e+01 6.220442708333333570e+01 6.547036773989898961e+01
5.330472695707070585e+01 6.242735953282828376e+01 6.551163983585858830e+01
5.350453756313131493e+01 6.275374842171716949e+01 6.567909564393939092e+01
5.360073390151514872e+01 6.303854955808080973e+01 6.575035511363635976e+01
5.374254261363636687e+01 6.330141256313131493e+01 6.586991003787878185e+01
5.389350536616161946e+01 6.358495107323232531e+01 6.599625157828282340e+01
5.395845170454545325e+01 6.378925978535353636e+01 6.608345170454545325e+01
5.414685921717171624e+01 6.408009785353534937e+01 6.622182765151515582e+01
5.426949179292929415e+01 6.433372790404040131e+01 6.633120265151515582e+01
5.442625473484848442e+01 6.462164614898989612e+01 6.648970170454545325e+01
5.453914141414141170e+01 6.487578914141414543e+01 6.656581439393939092e+01
5.439756944444444287e+01 6.469444444444444287e+01 6.636537247474747403e+01
5.378957544191919027e+01 6.372928503787878896e+01 6.568824968434343248e+01
5.334828756313131493e+01 6.291331281565656752e+01 6.522660195707071296e+01
5.327722537878787534e+01 6.272372159090909349e+01 6.515822285353534937e+01
5.317151988636363313e+01 6.255062342171716949e+01 6.508992266414141170e+01
5.304438920454545325e+01 6.228870738636363313e+01 6.494874526515151558e+01
5.284935290404040131e+01 6.200386679292929415e+01 6.475560290404040131e+01
5.279916351010101039e+01 6.195178345959595845e+01 6.473208648989898961e+01
5.309911616161615910e+01 6.228961489898989612e+01 6.499763257575757791e+01
5.324763257575757791e+01 6.259595959595959869e+01 6.516556186868686495e+01
5.324530460858586167e+01 6.265108112373737725e+01 6.515613162878787534e+01
5.325007891414141170e+01 6.266958648989898961e+01 6.515901199494949481e+01
5.330425347222222143e+01 6.278515625000000000e+01 6.519977114898989612e+01
5.344038036616161946e+01 6.300714172979797922e+01 6.532848011363635976e+01
5.354723011363636687e+01 6.323346748737373701e+01 6.544764046717172334e+01
5.368260732323232531e+01 6.345486111111111427e+01 6.555003156565656752e+01
5.378460385101010388e+01 6.367270359848485128e+01 6.567175662878787534e+01
5.382074652777777857e+01 6.383195233585858830e+01 6.569432607323231821e+01
5.398405934343434609e+01 6.404955808080808310e+01 6.586158459595959869e+01
5.400556344696969546e+01 6.418027935606060908e+01 6.588103693181818699e+01
5.415932765151514872e+01 6.439938446969696884e+01 6.599092487373737015e+01
5.427205650252525260e+01 6.460444286616161946e+01 6.609576231060606233e+01
5.433866003787878896e+01 6.476384943181818699e+01 6.616126104797979224e+01
5.443114741161615910e+01 6.495419034090909349e+01 6.624096433080808310e+01
5.455583175505050519e+01 6.520434816919191690e+01 6.632177241161616621e+01
5.470782039141413833e+01 6.544361584595959869e+01 6.642767518939393767e+01
5.481340751262626299e+01 6.564311079545454675e+01 6.647991635101010388e+01
5.488656092171716949e+01 6.583842329545454675e+01 6.654817708333332860e+01
5.493974905303030454e+01 6.590991950757575069e+01 6.654565183080808310e+01
5.449664614898989612e+01 6.528121054292928704e+01 6.605946180555555713e+01
5.396156881313131493e+01 6.427706755050505194e+01 6.555784406565656752e+01
5.371010890151514872e+01 6.379644097222222143e+01 6.537140940656566102e+01
5.363178661616161946e+01 6.362973484848485128e+01 6.535511363636364024e+01
5.350804924242424221e+01 6.339709595959595845e+01 6.522837752525252597e+01
5.338431186868687206e+01 6.311521464646464352e+01 6.509832702020202078e+01
5.329391571969696884e+01 6.293959122474747403e+01 6.502434501262625588e+01
5.349660669191919027e+01 6.319562815656565391e+01 6.525654987373737015e+01
5.360870422979797922e+01 6.341157670454545325e+01 6.538443023989898961e+01
5.355705492424242209e+01 6.330942234848485128e+01 6.528196022727273373e+01
5.350501104797979934e+01 6.327047821969696884e+01 6.526984690656566102e+01
5.355733112373737725e+01 6.328602430555555713e+01 6.529943970959595845e+01
5.364670138888888573e+01 6.343821022727272663e+01 6.540774936868686495e+01
5.373042929292929415e+01 6.360227272727272663e+01 6.550315656565656752e+01
5.381640625000000000e+01 6.374538352272727337e+01 6.558061079545454675e+01
5.394673295454545325e+01 6.394910037878787534e+01 6.568268623737374412e+01
5.397127525252525260e+01 6.403803661616161946e+01 6.572427398989898961e+01
5.405401672979797922e+01 6.416907354797979224e+01 6.578886521464646364e+01
5.410365372474747403e+01 6.429841382575757791e+01 6.585965119949494806e+01
5.408948863636363313e+01 6.442692550505050519e+01 6.584106691919191690e+01
5.421156881313131493e+01 6.456747159090909349e+01 6.595052083333332860e+01
5.432350852272727337e+01 6.472218276515151558e+01 6.603247316919191690e+01
5.446555397727272663e+01 6.497470801767676107e+01 6.615573705808080263e+01
5.452312184343434609e+01 6.509730113636364024e+01 6.620557133838383379e+01
5.454659880050505194e+01 6.527765940656566102e+01 6.629880839646465063e+01
5.454056186868687206e+01 6.520123106060606233e+01 6.619633838383838054e+01
5.400410353535353636e+01 6.427477904040404155e+01 6.560984848484848442e+01
5.341126104797979934e+01 6.318414614898989612e+01 6.504967645202020776e+01
5.316461489898989612e+01 6.266414141414141170e+01 6.482275883838383379e+01
5.304786142676767469e+01 6.240565814393939092e+01 6.475145991161616621e+01
5.281857638888888573e+01 6.199739583333333570e+01 6.452880366161616621e+01
5.262125157828283051e+01 6.159599905303030454e+01 6.435467960858585457e+01
5.250343276515151558e+01 6.135681029040404155e+01 6.429068023989898961e+01
5.270422979797979934e+01 6.155460858585858830e+01 6.449337121212121815e+01
5.282650726010101039e+01 6.177552872474747403e+01 6.466583806818181301e+01
5.274727746212121104e+01 6.169771938131312794e+01 6.458992266414141170e+01
5.272786458333333570e+01 6.163237847222222143e+01 6.458439867424242209e+01
5.273993844696969546e+01 6.167917455808080973e+01 6.459805082070707272e+01
5.285700757575757791e+01 6.187642045454545325e+01 6.476625631313130782e+01
5.298149463383838054e+01 6.205598958333333570e+01 6.486138731060606233e+01
5.305835700757575779e+01 6.222186710858586167e+01 6.493272569444444287e+01
5.314891098484848442e+01 6.237934027777777857e+01 6.503701073232323893e+01
5.319835069444444287e+01 6.248528251262626299e+01 6.505220170454545325e+01
5.329640151515151558e+01 6.264504419191919027e+01 6.517297979797979224e+01
5.340613162878787534e+01 6.281932607323232531e+01 6.529486268939393767e+01
5.347017045454545325e+01 6.293907828282828376e+01 6.535006313131313505e+01
5.357563920454545325e+01 6.313640309343434609e+01 6.547478693181818699e+01
5.368130523989898961e+01 6.329178503787878896e+01 6.554431029040404155e+01
5.381380208333333570e+01 6.349672506313131493e+01 6.565565814393939092e+01
5.385684974747474740e+01 6.360669191919191690e+01 6.571559343434343248e+01
5.389630681818182012e+01 6.384075126262626299e+01 6.578488005050505194e+01
5.407721748737373701e+01 6.405954071969696884e+01 6.595000789141414543e+01
5.415617108585858830e+01 6.419610164141414543e+01 6.600970643939393767e+01
5.415822285353535648e+01 6.424597537878787534e+01 6.599818497474747403e+01
5.358155776515151558e+01 6.338663983585858830e+01 6.536154513888888573e+01
5.285448232323232531e+01 6.204292929292929415e+01 6.459201388888888573e+01
5.251298137626262275e+01 6.124467329545454675e+01 6.429817708333332860e+01
5.236691130050505194e+01 6.082161458333333570e+01 6.424696180555555713e+01
5.213372001262626299e+01 6.041181344696969546e+01 6.410247001262625588e+01
5.191678503787878896e+01 5.985775726010101039e+01 6.384071180555555713e+01
5.168588226010101039e+01 5.950390625000000000e+01 6.366504892676767469e+01
5.178140782828283051e+01 5.952667297979797922e+01 6.373216540404040131e+01
5.206762941919191690e+01 5.994120896464646364e+01 6.406084280303029743e+01
5.213727114898989612e+01 6.012401357323232531e+01 6.417372948232323893e+01
5.207725694444444287e+01 6.007173295454545325e+01 6.410471906565656752e+01
5.214638573232323182e+01 6.013218118686868507e+01 6.420730744949494806e+01
5.222593118686868507e+01 6.032741477272727337e+01 6.433625315656566102e+01
5.240656565656565391e+01 6.059611742424242209e+01 6.450284090909090651e+01
5.250808869949494806e+01 6.081979955808080973e+01 6.462567077020202078e+01
5.259595959595959869e+01 6.101373106060606233e+01 6.473500631313130782e+01
5.269499684343434609e+01 6.120304608585858830e+01 6.485203598484848442e+01
5.279099589646464352e+01 6.140258049242424221e+01 6.496602746212121815e+01
5.289480744949494806e+01 6.162492108585858830e+01 6.502312184343433898e+01
5.300864109848485128e+01 6.178263099747474740e+01 6.510270675505050519e+01
5.311174242424242209e+01 6.205208333333333570e+01 6.517708333333332860e+01
5.320462436868687206e+01 6.225165719696969546e+01 6.523240214646465063e+01
5.329166666666666430e+01 6.249826388888888573e+01 6.534327651515151558e+01
5.346610637626262275e+01 6.274640940656565391e+01 6.545916193181818699e+01
5.355381944444444287e+01 6.289583333333333570e+01 6.551436237373737015e+01
5.364212436868687206e+01 6.312286931818182012e+01 6.563865214646465063e+01
5.371401515151514872e+01 6.331234217171716949e+01 6.572853535353534937e+01
5.380843592171716949e+01 6.348346748737373701e+01 6.579423137626262985e+01
5.396622474747474740e+01 6.372206439393939092e+01 6.593576388888888573e+01
5.409118529040404155e+01 6.393098958333333570e+01 6.601416508838383379e+01
5.400591856060606233e+01 6.388912563131312794e+01 6.594673295454545325e+01
5.330855429292929415e+01 6.273690025252525260e+01 6.512973484848484418e+01
5.259157986111111427e+01 6.130559501262626299e+01 6.442080965909090651e+01
5.221752683080808310e+01 6.046137152777777857e+01 6.411919981060606233e+01
5.209927398989898961e+01 6.015640782828283051e+01 6.408238636363635976e+01
5.191635101010101039e+01 5.979150883838384090e+01 6.388825757575757791e+01
5.159418402777777857e+01 5.930393781565656752e+01 6.362811710858586167e+01
5.150288036616161946e+01 5.899893465909090651e+01 6.350145991161615910e+01
5.163170770202020066e+01 5.914512310606060908e+01 6.363391729797979934e+01
5.193576388888888573e+01 5.966319444444444287e+01 6.402067550505050519e+01
5.194369476010101039e+01 5.977750157828283051e+01 6.404265309343433898e+01
5.192858270202020066e+01 5.976728219696969546e+01 6.404016729797979224e+01
5.197916666666666430e+01 5.986489898989898961e+01 6.410542929292928704e+01
5.214551767676767469e+01 6.007165404040404155e+01 6.426420454545454675e+01
5.230693655303030454e+01 6.032666508838384090e+01 6.444756155303029743e+01
5.235278566919191690e+01 6.052986900252525260e+01 6.453807607323231821e+01
5.246973642676767469e+01 6.080480587121212466e+01 6.469211647727273373e+01
5.259765625000000000e+01 6.099948705808080973e+01 6.479288983585858830e+01
5.270095486111111427e+01 6.122478693181817988e+01 6.493169981060606233e+01
5.282027304292929415e+01 6.140770991161615910e+01 6.500335385101010388e+01
5.286489898989898961e+01 6.160416666666666430e+01 6.510637626262625588e+01
5.305038667929292728e+01 6.185247001262626299e+01 6.521500157828282340e+01
5.307698074494949481e+01 6.201448074494949481e+01 6.522502367424242209e+01
5.323934659090909349e+01 6.232047032828283051e+01 6.535945391414141170e+01
5.338083964646464352e+01 6.253409090909090651e+01 6.541745580808080263e+01
5.344207702020202078e+01 6.276483585858586167e+01 6.553077651515151558e+01
5.355157039141413833e+01 6.295829387626262275e+01 6.562180397727273373e+01
5.363375946969696884e+01 6.310834911616161946e+01 6.567858270202020776e+01
5.374191130050505194e+01 6.337148832070707272e+01 6.577158301767676107e+01
5.388446969696969546e+01 6.357007575757575779e+01 6.592755681818181301e+01
5.402170138888888573e+01 6.378022411616161946e+01 6.600623421717172334e+01
5.404683554292929415e+01 6.386375473484848442e+01 6.602316130050505194e+01
5.351400726010101039e+01 6.305709438131312794e+01 6.541094539141414543e+01
5.269444444444444287e+01 6.146385732323232531e+01 6.454371843434343248e+01
5.209193497474747403e+01 6.039449179292929415e+01 6.410834911616161946e+01
5.206731376262626299e+01 6.006100063131312794e+01 6.406636679292928704e+01
5.191544349747474740e+01 5.978223642676767469e+01 6.392664930555555713e+01
5.169996843434343248e+01 5.940025252525252597e+01 6.376089015151514872e+01
5.152955334595959869e+01 5.910988794191919027e+01 6.361904198232323182e+01
5.174179292929292728e+01 5.929040404040404155e+01 6.382260101010101039e+01
5.203685290404040131e+01 5.975071022727272663e+01 6.411308396464646364e+01
5.201400726010101039e+01 5.980567392676767469e+01 6.410396938131313505e+01
5.194393150252525260e+01 5.980725220959595845e+01 6.411738478535353636e+01
5.196626420454545325e+01 5.982437657828283051e+01 6.413324652777777146e+01
5.212941919191919027e+01 6.004782196969696884e+01 6.428251262626262985e+01
5.222143308080808310e+01 6.025268308080808310e+01 6.441998106060606233e+01
5.240423768939393767e+01 6.055796243686868507e+01 6.460830965909090651e+01
5.248224431818182012e+01 6.080658143939393767e+01 6.474518623737374412e+01
5.258893623737373701e+01 6.098398042929292728e+01 6.481526199494949481e+01
5.267234848484848442e+01 6.118939393939393767e+01 6.487010732323231821e+01
5.272040719696969546e+01 6.133136047979797922e+01 6.497908775252524549e+01
5.285464015151514872e+01 6.150868055555555713e+01 6.509138257575757791e+01
5.296042455808080973e+01 6.175177556818182012e+01 6.515265940656566102e+01
5.307098327020202078e+01 6.194061710858586167e+01 6.523370422979797922e+01
5.321334438131312794e+01 6.221255523989898961e+01 6.530725220959595845e+01
5.333147885101010388e+01 6.239871369949494806e+01 6.545458491161616621e+01
5.343438289141413833e+01 6.270758364898989612e+01 6.555512152777777146e+01
5.351049558080808310e+01 6.287318497474747403e+01 6.562160669191919737e+01
5.347040719696969546e+01 6.282804608585858830e+01 6.554916351010101039e+01
5.280346433080808310e+01 6.167988478535353636e+01 6.479020675505050519e+01
5.201988636363636687e+01 6.018371212121212466e+01 6.403409090909090651e+01
5.169511521464646364e+01 5.946452809343434609e+01 6.379644097222222143e+01
5.161647727272727337e+01 5.921227904040404155e+01 6.373437500000000000e+01
5.148611111111111427e+01 5.895817550505050519e+01 6.362342171717171624e+01
5.131202651515151558e+01 5.861773989898989612e+01 6.345407196969696884e+01
5.129794034090909349e+01 5.848196811868687206e+01 6.344203756313131493e+01
5.155673926767676818e+01 5.887649936868687206e+01 6.374928977272727337e+01
5.173544034090909349e+01 5.921918402777777857e+01 6.393193655303030454e+01
5.175722064393939092e+01 5.925753630050505194e+01 6.392278251262626299e+01
5.172238005050505194e+01 5.925694444444444287e+01 6.393134469696969546e+01
5.180879103535353636e+01 5.939386047979797922e+01 6.404979482323231821e+01
5.195928030303030454e+01 5.968639520202020066e+01 6.420801767676768179e+01
5.211620107323232531e+01 5.996405460858586167e+01 6.437125157828282340e+01
5.223370422979797922e+01 6.024759311868687206e+01 6.452174084595959869e+01
5.234734059343434609e+01 6.044961332070707272e+01 6.462843276515151558e+01
5.248737373737373701e+01 6.065546085858586167e+01 6.473895202020202078e+01
5.255614741161615910e+01 6.090273832070707272e+01 6.485286458333332860e+01
5.268098958333333570e+01 6.108218907828283051e+01 6.495955650252524549e+01
5.277556818181817988e+01 6.130634469696969546e+01 6.507402146464646364e+01
5.287574968434343248e+01 6.148038983585858830e+01 6.519251104797979224e+01
5.300027619949494806e+01 6.175390625000000000e+01 6.530883049242424931e+01
5.312373737373737725e+01 6.197522095959595845e+01 6.541761363636364024e+01
5.324080650252525260e+01 6.217436079545454675e+01 6.550769412878787534e+01
5.335531092171716949e+01 6.245316445707070585e+01 6.554849273989898961e+01
5.348378314393939092e+01 6.271042455808080973e+01 6.564019097222222854e+01
5.362042297979797922e+01 6.297159090909090651e+01 6.576388888888888573e+01
5.363912563131312794e+01 6.309256628787878896e+01 6.579237689393939092e+01
5.325777304292929415e+01 6.255559501262626299e+01 6.536509627525252597e+01
5.234927398989898961e+01 6.079150883838384090e+01 6.434185606060606233e+01
5.170363794191919027e+01 5.943438289141413833e+01 6.375808869949494806e+01
5.146401515151514872e+01 5.892029671717171624e+01 6.363415404040404155e+01
5.130054450757575779e+01 5.864650410353535648e+01 6.350603693181817988e+01
5.112780145202020066e+01 5.826637468434343248e+01 6.332855902777777857e+01
5.088955965909090651e+01 5.783368844696969546e+01 6.311209753787878896e+01
5.079565183080808310e+01 5.768753945707070585e+01 6.308368844696969546e+01
5.112267203282828376e+01 5.812472380050505194e+01 6.344306344696969546e+01
5.136584595959595845e+01 5.852288510101010388e+01 6.365703914141413833e+01
5.138683712121212466e+01 5.858001893939393767e+01 6.367613636363636687e+01
5.137989267676767469e+01 5.859627525252525260e+01 6.369255050505050519e+01
5.149850063131312794e+01 5.878243371212121104e+01 6.379553345959595845e+01
5.167881944444444287e+01 5.905160984848485128e+01 6.398895202020202078e+01
5.181589330808080973e+01 5.933530618686868507e+01 6.412981376262625588e+01
5.188514046717171624e+01 5.958431976010101039e+01 6.427355587121212466e+01
5.196673768939393767e+01 5.978839172979797922e+01 6.435815183080808310e+01
5.218631628787878896e+01 6.005689709595959869e+01 6.451964962121212466e+01
5.222873263888888573e+01 6.026014046717171624e+01 6.462772253787878185e+01
5.238285195707070585e+01 6.047644412878787534e+01 6.473828125000000000e+01
5.250501104797979934e+01 6.071965751262626299e+01 6.487843276515151558e+01
5.257879577020202078e+01 6.092538667929292728e+01 6.499214804292928704e+01
5.265163352272727337e+01 6.118051609848485128e+01 6.511643781565656752e+01
5.279312657828283051e+01 6.137298768939393767e+01 6.520931976010101039e+01
5.292668876262626299e+01 6.160566603535353636e+01 6.532646780303029743e+01
5.305109690656565391e+01 6.185081281565656752e+01 6.545908301767676107e+01
5.316603535353535648e+01 6.209580176767676818e+01 6.557749368686869218e+01
5.329758522727272663e+01 6.236813446969696884e+01 6.571504103535353636e+01
5.337204071969696884e+01 6.256758996212121104e+01 6.567617582070707272e+01
5.301333648989898961e+01 6.200039457070707272e+01 6.523098169191919737e+01
5.204573074494949481e+01 6.023828125000000000e+01 6.426211332070707272e+01
5.146717171717171624e+01 5.898374368686868507e+01 6.367424242424242209e+01
5.123796559343434609e+01 5.852395044191919027e+01 6.357035195707070585e+01
5.103503787878787534e+01 5.826136363636363313e+01 6.347979797979797922e+01
5.089689867424242209e+01 5.784576231060606233e+01 6.325059185606060908e+01
5.062799873737373701e+01 5.741919191919191690e+01 6.306313131313131493e+01
5.065112058080808310e+01 5.737160669191919027e+01 6.310361426767676818e+01
5.092917455808080973e+01 5.781569602272727337e+01 6.343895991161615910e+01
5.118876262626262275e+01 5.826120580808080973e+01 6.370202020202020066e+01
5.115451388888888573e+01 5.828503787878787534e+01 6.369649621212121104e+01
5.119850852272727337e+01 5.833566130050505194e+01 6.375185448232323182e+01
5.127095170454545325e+01 5.849538352272727337e+01 6.387622316919191690e+01
5.146776357323232531e+01 5.875453756313131493e+01 6.402158301767676107e+01
5.159805082070707272e+01 5.907705965909090651e+01 6.424293718434343248e+01
5.174191130050505194e+01 5.934749842171716949e+01 6.438032670454545325e+01
5.185582386363636687e+01 5.960645517676767469e+01 6.450402462121212466e+01
5.195841224747474740e+01 5.983262310606060908e+01 6.459919507575757791e+01
5.206360479797979934e+01 6.007323232323232531e+01 6.474179292929292728e+01
5.221310763888888573e+01 6.031490688131312794e+01 6.487125157828282340e+01
5.228314393939393767e+01 6.050347222222222143e+01 6.492881944444444287e+01
5.242759627525252597e+01 6.081032986111111427e+01 6.512898516414141170e+01
5.255038667929292728e+01 6.103728693181817988e+01 6.523662405303029743e+01
5.271077967171716949e+01 6.127075441919191690e+01 6.535471906565656752e+01
5.281853693181817988e+01 6.151913667929292728e+01 6.550619476010101039e+01
5.296515940656565391e+01 6.172084122474747403e+01 6.561683238636364024e+01
5.306281565656565391e+01 6.199763257575757791e+01 6.576152146464646364e+01
5.319014362373737725e+01 6.222013099747474740e+01 6.589547821969696884e+01
5.333708175505050519e+01 6.248780776515151558e+01 6.603420928030303116e+01
5.343027935606060908e+01 6.270269097222222143e+01 6.611525410353534937e+01
5.327252998737373701e+01 6.252647569444444287e+01 6.591552241161616621e+01
5.244393150252525260e+01 6.109876104797979934e+01 6.495766256313130782e+01
5.164240056818182012e+01 5.962109375000000000e+01 6.418580334595959869e+01
5.142676767676767469e+01 5.906123737373737725e+01 6.406897095959595845e+01
5.132496843434343248e+01 5.880697601010101039e+01 6.400094696969696884e+01
5.114729324494949481e+01 5.849909248737373701e+01 6.386336016414141170e+01
5.087389520202020066e+01 5.807607323232323182e+01 6.361884469696969546e+01
5.089224273989898961e+01 5.799325284090909349e+01 6.363892834595959869e+01
5.118864425505050519e+01 5.839098011363636687e+01 6.394906092171716949e+01
5.139299242424242209e+01 5.868813131313131493e+01 6.412184343434343248e+01
5.132429766414141170e+01 5.869693023989898961e+01 6.410744160353534937e+01
5.131786616161615910e+01 5.867282196969696884e+01 6.406960227272726627e+01
5.132630997474747403e+01 5.880121527777777857e+01 6.416074810606060908e+01
5.156139520202020066e+01 5.905823863636363313e+01 6.433412247474747403e+01
5.167684659090909349e+01 5.933151830808080973e+01 6.449108270202020776e+01
5.184268465909090651e+01 5.958353061868687206e+01 6.461919981060606233e+01
5.195711016414141170e+01 5.982611268939393767e+01 6.473173137626262985e+01
5.207220643939393767e+01 6.005232007575757791e+01 6.482425820707071296e+01
5.208854166666666430e+01 6.022111742424242209e+01 6.489472853535353636e+01
5.220505839646464352e+01 6.041670612373737725e+01 6.500003945707071296e+01
5.227450284090909349e+01 6.061509627525252597e+01 6.508558238636364024e+01
5.240009469696969546e+01 6.079229797979797922e+01 6.516619318181818699e+01
5.254580965909090651e+01 6.105007102272727337e+01 6.533289930555555713e+01
5.268177872474747403e+01 6.130977746212121104e+01 6.546981534090909349e+01
5.281380208333333570e+01 6.156285511363636687e+01 6.560830965909090651e+01
5.284639362373737725e+01 6.171397569444444287e+01 6.566725852272726627e+01
5.280500315656565391e+01 6.166690340909090651e+01 6.556699810606060908e+01
5.207256155303030454e+01 6.048591382575757791e+01 6.474238478535353636e+01
5.135266729797979934e+01 5.900875946969696884e+01 6.397861426767676818e+01
5.105070233585858830e+01 5.838403566919191690e+01 6.380385890151514872e+01
5.094361584595959869e+01 5.815999842171716949e+01 6.374348958333333570e+01
5.078164457070707272e+01 5.788817866161615910e+01 6.359745896464646364e+01
5.056979955808080973e+01 5.750224905303030454e+01 6.338514046717171624e+01
5.059832702020202078e+01 5.746606691919191690e+01 6.341366792929292728e+01
5.090743371212121104e+01 5.788186553030303116e+01 6.372088068181817988e+01
5.101649305555555713e+01 5.810329861111111427e+01 6.383546401515151558e+01
5.097040719696969546e+01 5.812413194444444287e+01 6.380200441919191690e+01
5.091911300505050519e+01 5.807836174242424221e+01 6.375370896464646364e+01
5.100043402777777857e+01 5.824664614898989612e+01 6.387843276515151558e+01
5.119341856060606233e+01 5.852501578282828376e+01 6.407283775252524549e+01
5.138210227272727337e+01 5.882070707070707272e+01 6.422648358585858830e+01
5.154947916666666430e+01 5.907867739898989612e+01 6.435203598484848442e+01
5.154916351010101039e+01 5.925260416666666430e+01 6.442621527777777146e+01
5.172652304292929415e+01 5.950998263888888573e+01 6.455827809343433898e+01
5.181605113636363313e+01 5.968252840909090651e+01 6.461608270202020776e+01
5.194239267676767469e+01 5.986063762626262275e+01 6.473547979797979224e+01
5.194835069444444287e+01 6.008250473484848442e+01 6.478547190656566102e+01
5.208289930555555713e+01 6.030070233585858830e+01 6.493943339646465063e+01
5.223974116161615910e+01 6.055571338383838054e+01 6.505460858585858830e+01
5.233593750000000000e+01 6.076854482323232531e+01 6.512460542929292728e+01
5.247971906565656752e+01 6.099455492424242209e+01 6.528053977272726627e+01
5.255527935606060908e+01 6.114397885101010388e+01 6.533779198232323893e+01
5.271729008838384090e+01 6.146145044191919027e+01 6.550359059343433898e+01
5.280500315656565391e+01 6.164449179292929415e+01 6.558988320707071296e+01
5.286809501262626299e+01 6.179975536616161946e+01 6.564350536616161946e+01
5.278606376262626299e+01 6.167952967171716949e+01 6.549060921717172334e+01
5.185152304292929415e+01 6.016528566919191690e+01 6.445411142676768179e+01
5.103633996212121104e+01 5.856032986111111427e+01 6.365060763888888573e+01
5.061343907828283051e+01 5.772249842171716949e+01 6.330362215909090651e+01
5.050816761363636687e+01 5.743367266414141170e+01 6.320860953282828376e+01
5.024656723484848442e+01 5.701661142676767469e+01 6.295789930555555713e+01
5.000808869949494806e+01 5.647857481060606233e+01 6.269416824494949481e+01
4.981435448232323182e+01 5.617956912878787534e+01 6.252821180555555713e+01
4.993023989898989612e+01 5.631076388888888573e+01 6.268513257575757791e+01
5.032216698232323182e+01 5.684063289141413833e+01 6.302923768939393767e+01
5.030737058080808310e+01 5.693410669191919027e+01 6.301286300505050519e+01
5.028787878787878896e+01 5.693323863636363313e+01 6.301862373737373701e+01
5.034769570707070585e+01 5.703251262626262275e+01 6.305476641414141170e+01
5.044957386363636687e+01 5.728843118686868507e+01 6.321551452020202078e+01
5.065767045454545325e+01 5.757938762626262275e+01 6.341729797979797922e+01
5.082271938131312794e+01 5.787148832070707272e+01 6.357997948232323182e+01
5.096519886363636687e+01 5.812507891414141170e+01 6.370130997474747403e+01
5.103188131313131493e+01 5.829577020202020066e+01 6.378708964646464352e+01
5.118730271464646364e+01 5.855314867424242209e+01 6.392941130050505194e+01
5.125422190656565391e+01 5.877900094696969546e+01 6.400248579545454675e+01
5.141974431818182012e+01 5.901428345959595845e+01 6.412870896464646364e+01
5.151704545454545325e+01 5.928424873737373701e+01 6.424100378787878185e+01
5.166792929292929415e+01 5.953787878787878896e+01 6.434154040404040131e+01
5.178389362373737725e+01 5.979557291666666430e+01 6.449932922979797922e+01
5.191351010101010388e+01 6.004577020202020066e+01 6.459801136363635976e+01
5.202237215909090651e+01 6.027158301767676818e+01 6.472092013888888573e+01
5.213857323232323182e+01 6.053614267676767469e+01 6.485684974747475451e+01
5.227584438131312794e+01 6.081593276515151558e+01 6.500201231060606233e+01
5.245276988636363313e+01 6.108518781565656752e+01 6.509670928030303116e+01
5.251183712121212466e+01 6.127067550505050519e+01 6.517487373737374412e+01
5.211146622474747403e+01 6.070063920454545325e+01 6.467649147727273373e+01
5.125023674242424221e+01 5.916390467171716949e+01 6.369925820707070585e+01
5.070367739898989612e+01 5.812949810606060908e+01 6.317258522727272663e+01
5.051929450757575779e+01 5.774404198232323182e+01 6.309584122474747403e+01
5.038194444444444287e+01 5.748453282828283051e+01 6.295675505050505194e+01
5.016319444444444287e+01 5.710164141414141170e+01 6.275789141414141170e+01
4.993098958333333570e+01 5.671823705808080973e+01 6.253957544191919027e+01
4.989437342171716949e+01 5.664816130050505194e+01 6.251116635101010388e+01
5.023469065656565391e+01 5.707386363636363313e+01 6.282070707070707272e+01
5.034477588383838054e+01 5.737934027777777857e+01 6.295983270202020066e+01
5.036422821969696884e+01 5.741473327020202078e+01 6.293556660353535648e+01
5.037219854797979934e+01 5.747873263888888573e+01 6.296010890151514872e+01
5.046634311868687206e+01 5.766141887626262275e+01 6.305851483585858830e+01
5.062326388888888573e+01 5.795044191919191690e+01 6.320265151515151558e+01
5.076807133838384090e+01 5.822403724747474740e+01 6.329632260101010388e+01
5.096531723484848442e+01 5.851029829545454675e+01 6.345568970959595845e+01
5.100335385101010388e+01 5.871942077020202078e+01 6.349435763888888573e+01
5.113095801767676818e+01 5.894945549242424221e+01 6.360223327020202078e+01
5.127339804292929415e+01 5.923804450757575779e+01 6.374214804292929415e+01
5.139681976010101039e+01 5.949625157828283051e+01 6.387077809343434609e+01
5.153353851010101039e+01 5.974629103535353636e+01 6.397608901515151558e+01
5.165309343434343248e+01 5.998469065656565391e+01 6.409864267676768179e+01
5.174759311868687206e+01 6.021839488636363313e+01 6.420687342171717660e+01
5.186829229797979934e+01 6.044673295454545325e+01 6.431005366161616621e+01
5.202537089646464352e+01 6.072833806818182012e+01 6.444124842171717660e+01
5.211639835858586167e+01 6.098129734848485128e+01 6.452801452020202078e+01
5.226183712121212466e+01 6.121212121212121104e+01 6.457449494949494806e+01
5.238462752525252597e+01 6.144902146464646364e+01 6.461095328282827666e+01
5.245675505050505194e+01 6.166303661616161946e+01 6.466035353535353636e+01
5.261217645202020066e+01 6.199049084595959869e+01 6.479841382575757791e+01
5.274060921717171624e+01 6.224692234848485128e+01 6.484004103535353636e+01
5.286162405303030454e+01 6.248173137626262275e+01 6.489524147727273373e+01
5.281395991161615910e+01 6.246373895202020066e+01 6.480275410353534937e+01
5.205689709595959869e+01 6.132220643939393767e+01 6.392605744949494806e+01
5.140179135101010388e+01 6.004778251262626299e+01 6.326542771464646364e+01
5.109296085858586167e+01 5.945565025252525260e+01 6.310811237373737725e+01
5.104679608585858830e+01 5.926270517676767469e+01 6.304285037878787534e+01
5.095868844696969546e+01 5.905401672979797922e+01 6.294195864898989612e+01
5.073421717171716949e+01 5.865940656565656752e+01 6.268781565656565391e+01
5.060144412878787534e+01 5.845466382575757791e+01 6.256735321969696884e+01
5.075520833333333570e+01 5.862263257575757791e+01 6.269823232323232531e+01
5.095253314393939092e+01 5.892522885101010388e+01 6.288971748737373701e+01
5.095837279040404155e+01 5.893406723484848442e+01 6.284883996212121104e+01
5.079955808080808310e+01 5.884690656565656752e+01 6.277840909090909349e+01
5.089176925505050519e+01 5.891370738636363313e+01 6.281506470959595845e+01
5.090518465909090651e+01 5.902292455808080973e+01 6.283984375000000000e+01
5.105007102272727337e+01 5.922494476010101039e+01 6.297289299242424221e+01
5.119495738636363313e+01 5.945142834595959869e+01 6.308384627525252597e+01
5.131360479797979934e+01 5.964851641414141170e+01 6.312705176767676818e+01
5.139165088383838054e+01 5.985740214646464352e+01 6.321661931818182012e+01
5.143777619949494806e+01 6.000011837121212466e+01 6.320103377525252597e+01
5.150284090909090651e+01 6.013352272727272663e+01 6.325520833333333570e+01
5.160704703282828376e+01 6.034331597222222143e+01 6.328760258838384090e+01
5.163462752525252597e+01 6.049226641414141170e+01 6.334627525252525260e+01
5.179809816919191690e+01 6.070182291666666430e+01 6.343083175505050519e+01
5.187018623737373701e+01 6.088076073232323182e+01 6.349913194444444287e+01
5.203851010101010388e+01 6.108554292929292728e+01 6.359248737373737725e+01
5.210586332070707272e+01 6.128357796717171624e+01 6.369251104797979934e+01
5.221030618686868507e+01 6.144878472222222143e+01 6.377754103535353636e+01
5.228259154040404155e+01 6.162413194444444287e+01 6.385108901515151558e+01
5.217929292929292728e+01 6.144049873737373701e+01 6.366729797979797922e+01
5.144917929292929415e+01 6.030587121212121104e+01 6.287500000000000000e+01
5.081687973484848442e+01 5.913521938131312794e+01 6.225501104797979934e+01
5.062910353535353636e+01 5.864583333333333570e+01 6.216650883838384090e+01
5.057429766414141170e+01 5.841552241161615910e+01 6.212085700757575779e+01
5.036004577020202078e+01 5.810183869949494806e+01 6.195490056818182012e+01
5.018146306818182012e+01 5.773938604797979934e+01 6.177063604797979934e+01
5.019349747474747403e+01 5.770991161616161946e+01 6.182465277777777857e+01
5.046145044191919027e+01 5.800706281565656752e+01 6.207540246212121104e+01
5.046113478535353636e+01 5.809023832070707272e+01 6.206340751262626299e+01
5.043375157828283051e+01 5.801961016414141170e+01 6.199751420454545325e+01
5.039591224747474740e+01 5.797608901515151558e+01 6.198808396464646364e+01
5.049060921717171624e+01 5.804790088383838054e+01 6.203622159090909349e+01
5.061261047979797922e+01 5.829316603535353636e+01 6.222103851010101039e+01
5.073946496212121104e+01 5.843801294191919027e+01 6.232200915404040131e+01
5.081940498737373701e+01 5.863521938131312794e+01 6.243398832070707272e+01
5.084682765151514872e+01 5.879300820707070585e+01 6.240869633838384090e+01
5.093402777777777857e+01 5.896133207070707272e+01 6.251452020202020066e+01
5.105082070707070585e+01 5.913652146464646364e+01 6.259406565656565391e+01
5.108293876262626299e+01 5.925939078282828376e+01 6.259351325757575779e+01
5.120604482323232531e+01 5.944894255050505194e+01 6.267874053030303116e+01
5.129091698232323182e+01 5.964192708333333570e+01 6.275508996212121104e+01
5.140005523989898961e+01 5.983660827020202078e+01 6.284339488636363313e+01
5.149759311868687206e+01 6.006514362373737725e+01 6.292846433080808310e+01
5.160329861111111427e+01 6.028653724747474740e+01 6.305516098484848442e+01
5.170785984848485128e+01 6.045170454545454675e+01 6.312279040404040131e+01
5.138521938131312794e+01 6.002000473484848442e+01 6.276984690656565391e+01
5.061170296717171624e+01 5.865384311868687206e+01 6.191110321969696884e+01
4.999124053030303116e+01 5.740664457070707272e+01 6.138297032828283051e+01
4.972861426767676818e+01 5.689322916666666430e+01 6.124644886363636687e+01
4.960002367424242209e+01 5.655551609848485128e+01 6.111959438131312794e+01
4.934528882575757791e+01 5.613585069444444287e+01 6.091552241161615910e+01
4.912002840909090651e+01 5.568678977272727337e+01 6.070983270202020066e+01
4.903259154040404155e+01 5.554190340909090651e+01 6.067179608585858830e+01
4.930819917929292728e+01 5.589674084595959869e+01 6.093998579545454675e+01
4.942148042929292728e+01 5.607441603535353636e+01 6.105673926767676818e+01
4.940782828282828376e+01 5.604719065656565391e+01 6.101925505050505194e+01
4.939555713383838054e+01 5.604170612373737725e+01 6.102229324494949481e+01
4.951834753787878896e+01 5.618627683080808310e+01 6.113387784090909349e+01
4.963454861111111427e+01 5.641753472222222143e+01 6.128622159090909349e+01
4.978326231060606233e+01 5.663364109848485128e+01 6.142388731060606233e+01
4.987768308080808310e+01 5.687878787878787534e+01 6.156802398989898961e+01
5.001238952020202078e+01 5.705847537878787534e+01 6.166990214646464352e+01
5.014180871212121104e+01 5.728527462121212466e+01 6.181478851010101039e+01
5.023461174242424221e+01 5.745509785353535648e+01 6.190096275252525260e+01
5.039839804292929415e+01 5.766149779040404155e+01 6.200461647727272663e+01
5.049909248737373701e+01 5.790565814393939092e+01 6.214066445707070585e+01
5.053014520202020066e+01 5.810606060606060908e+01 6.218797348484848442e+01
5.073275726010101039e+01 5.835444286616161946e+01 6.236722695707070585e+01
5.081676136363636687e+01 5.851925505050505194e+01 6.243134469696969546e+01
5.097139362373737725e+01 5.878878630050505194e+01 6.255204387626262275e+01
5.107291666666666430e+01 5.902304292929292728e+01 6.267960858585858830e+01
5.125907512626262275e+01 5.932678345959595845e+01 6.278511679292929415e+01
5.133061079545454675e+01 5.949033301767676818e+01 6.284071180555555713e+01
5.122640467171716949e+01 5.940380366161615910e+01 6.269799558080808310e+01
5.049857954545454675e+01 5.822648358585858830e+01 6.186553030303030454e+01
4.969211647727272663e+01 5.678744476010101039e+01 6.116891571969696884e+01
4.938336489898989612e+01 5.615261994949494806e+01 6.094191919191919027e+01
4.927860637626262275e+01 5.588293087121212466e+01 6.085389046717171624e+01
4.903121054292929415e+01 5.547944286616161946e+01 6.067230902777777857e+01
4.885653409090909349e+01 5.507370580808080973e+01 6.046969696969696884e+01
4.866339172979797922e+01 5.478981218434343248e+01 6.032753314393939092e+01
4.888703440656565391e+01 5.502481849747474740e+01 6.055622632575757791e+01
4.913143150252525260e+01 5.548370422979797922e+01 6.083076862373737725e+01
4.922526041666666430e+01 5.563198390151514872e+01 6.089366319444444287e+01
4.921953914141413833e+01 5.565609217171716949e+01 6.089109848484848442e+01
4.926471748737373701e+01 5.574372632575757791e+01 6.094069602272727337e+01
4.942546559343434609e+01 5.602773832070707272e+01 6.110886205808080973e+01
4.962484217171716949e+01 5.630192550505050519e+01 6.128140782828283051e+01
4.978050031565656752e+01 5.658810763888888573e+01 6.143769728535353636e+01
4.991358901515151558e+01 5.686008522727272663e+01 6.158230744949494806e+01
5.003365688131312794e+01 5.707721748737373701e+01 6.167696496212121104e+01
5.021401515151514872e+01 5.733759469696969546e+01 6.183680555555555713e+01
5.028381470959595845e+01 5.754991319444444287e+01 6.194716698232323182e+01
5.042889835858586167e+01 5.779111426767676818e+01 6.206194760101010388e+01
5.059643308080808310e+01 5.802730429292929415e+01 6.218229166666666430e+01
5.072001262626262275e+01 5.827398989898989612e+01 6.228393308080808310e+01
5.080591066919191690e+01 5.855306976010101039e+01 6.242317708333333570e+01
5.092203282828283051e+01 5.879466540404040131e+01 6.249889520202020066e+01
5.109623579545454675e+01 5.905409564393939092e+01 6.265289614898989612e+01
5.122908775252525260e+01 5.931068497474747403e+01 6.275434027777777857e+01
5.131210542929292728e+01 5.955468750000000000e+01 6.283214962121212466e+01
5.150836489898989612e+01 5.980650252525252597e+01 6.292566287878787534e+01
5.156711647727272663e+01 6.001140309343434609e+01 6.303555082070707272e+01
5.169570707070707272e+01 6.026152146464646364e+01 6.313446969696969546e+01
5.177217487373737725e+01 6.046014835858586167e+01 6.322482638888888573e+01
5.196070075757575779e+01 6.074147727272727337e+01 6.340388257575757791e+01
5.206159248737373701e+01 6.097983743686868507e+01 6.352844854797979934e+01
5.217440025252525260e+01 6.120833333333333570e+01 6.364962121212121104e+01
5.179857165404040131e+01 6.071855271464646364e+01 6.320624210858586167e+01
5.096551452020202078e+01 5.912981376262626299e+01 6.222372159090909349e+01
5.034501262626262275e+01 5.798563762626262275e+01 6.171527777777777857e+01
5.013233901515151558e+01 5.751507260101010388e+01 6.156889204545454675e+01
5.006332859848485128e+01 5.729912405303030454e+01 6.149767203282828376e+01
4.978117108585858830e+01 5.684998421717171624e+01 6.127880366161615910e+01
4.961553030303030454e+01 5.649352904040404155e+01 6.112326388888888573e+01
4.957678345959595845e+01 5.636450441919191690e+01 6.110566603535353636e+01
4.985704703282828376e+01 5.672178819444444287e+01 6.138640309343434609e+01
5.000627367424242209e+01 5.706877367424242209e+01 6.156530145202020066e+01
4.998824179292929415e+01 5.708325441919191690e+01 6.152296401515151558e+01
5.002249053030303116e+01 5.711387310606060908e+01 6.153795770202020066e+01
5.008518781565656752e+01 5.724506786616161946e+01 6.163632417929292728e+01
5.021796085858586167e+01 5.745044191919191690e+01 6.177667297979797922e+01
5.036138731060606233e+01 5.770971433080808310e+01 6.196034564393939092e+01
5.053196022727272663e+01 5.796188446969696884e+01 6.209130366161615910e+01
5.066106376262626299e+01 5.823177083333333570e+01 6.219831123737373701e+01
5.076211332070707272e+01 5.839705650252525260e+01 6.230488478535353636e+01
5.094132733585858830e+01 5.863261521464646364e+01 6.243138415404040131e+01
5.098547979797979934e+01 5.878566919191919027e+01 6.251736111111111427e+01
5.103409090909090651e+01 5.903677398989898961e+01 6.260337752525252597e+01
5.120190183080808310e+01 5.926298137626262275e+01 6.273851799242424221e+01
5.128046085858586167e+01 5.943576388888888573e+01 6.285258838383838054e+01
5.139610953282828376e+01 5.965431660353535648e+01 6.299222695707070585e+01
5.152379261363636687e+01 5.985349589646464352e+01 6.305472695707070585e+01
5.169041982323232531e+01 6.009824810606060908e+01 6.319136679292929415e+01
5.179048295454545325e+01 6.032394255050505194e+01 6.331289457070707272e+01
5.185120738636363313e+01 6.053776041666666430e+01 6.342254577020202078e+01
5.199487058080808310e+01 6.074313446969696884e+01 6.353764204545454675e+01
5.181983901515151558e+01 6.046267361111111427e+01 6.329253472222222143e+01
5.108143939393939092e+01 5.920233585858586167e+01 6.256297348484848442e+01
5.045565025252525260e+01 5.798705808080808310e+01 6.192976641414141170e+01
5.023918876262626299e+01 5.751996527777777857e+01 6.179900568181817988e+01
5.012618371212121104e+01 5.728622159090909349e+01 6.174266098484848442e+01
4.995296717171716949e+01 5.698248106060606233e+01 6.162326388888888573e+01
4.983305713383838054e+01 5.670647885101010388e+01 6.148930713383838054e+01
4.988364109848485128e+01 5.677789614898989612e+01 6.158897569444444287e+01
5.021673768939393767e+01 5.723520359848485128e+01 6.190818339646464352e+01
5.023887310606060908e+01 5.734793244949494806e+01 6.193426452020202078e+01
5.019953440656565391e+01 5.731048768939393767e+01 6.192680713383838054e+01
5.021819760101010388e+01 5.734682765151514872e+01 6.195446654040404155e+01
5.039484690656565391e+01 5.752900094696969546e+01 6.206198705808080973e+01
5.055614741161615910e+01 5.779383680555555713e+01 6.227110953282828376e+01
5.068106849747474740e+01 5.802103061868687206e+01 6.242743844696969546e+01
5.082169349747474740e+01 5.827971117424242209e+01 6.258226799242424221e+01
5.096062184343434609e+01 5.851601957070707272e+01 6.269973169191919027e+01
5.099644886363636687e+01 5.867432133838384090e+01 6.274976325757575779e+01
5.116650883838384090e+01 5.886426767676767469e+01 6.287310606060606233e+01
5.117739898989898961e+01 5.902035984848485128e+01 6.294854797979797922e+01
5.135053661616161946e+01 5.922648358585858830e+01 6.306250000000000000e+01
5.144195864898989612e+01 5.945016571969696884e+01 6.321405460858586167e+01
5.156202651515151558e+01 5.965277777777777857e+01 6.327099116161615910e+01
5.169298453282828376e+01 5.989610953282828376e+01 6.341599589646464352e+01
5.179774305555555713e+01 6.012507891414141170e+01 6.351523042929292728e+01
5.194811395202020066e+01 6.038861268939393767e+01 6.361067708333333570e+01
5.204667771464646364e+01 6.058029513888888573e+01 6.375437973484848442e+01
5.204628314393939092e+01 6.062851167929292728e+01 6.372494476010101039e+01
5.153353851010101039e+01 5.976270517676767469e+01 6.317163825757575779e+01
5.072853535353535648e+01 5.822080176767676818e+01 6.235164141414141170e+01
5.028531407828283051e+01 5.733960700757575779e+01 6.197297190656565391e+01
5.011047979797979934e+01 5.699558080808080973e+01 6.188036616161615910e+01
4.997672032828283051e+01 5.673145517676767469e+01 6.175418244949494806e+01
4.972060448232323182e+01 5.632713857323232531e+01 6.152284564393939092e+01
4.964046717171716949e+01 5.609769570707070585e+01 6.143434343434343248e+01
4.978559027777777857e+01 5.628606376262626299e+01 6.162444760101010388e+01
5.010992739898989612e+01 5.675670770202020066e+01 6.192526830808080973e+01
5.021385732323232531e+01 5.698342803030303116e+01 6.205523989898989612e+01
5.019811395202020066e+01 5.695853061868687206e+01 6.202718592171716949e+01
5.021275252525252597e+01 5.705997474747474740e+01 6.209801136363636687e+01
5.041497001262626299e+01 5.729233743686868507e+01 6.227639678030303116e+01
5.057642834595959869e+01 5.759047506313131493e+01 6.246058238636363313e+01
5.072857481060606233e+01 5.787030460858586167e+01 6.259915561868687206e+01
5.087050189393939092e+01 5.809919507575757791e+01 6.271425189393939092e+01
5.101519097222222143e+01 5.834663036616161946e+01 6.285957228535353636e+01
5.111213699494949481e+01 5.856368371212121104e+01 6.297293244949494806e+01
5.125512941919191690e+01 5.877028093434343248e+01 6.309335542929292728e+01
5.135495580808080973e+01 5.901609848484848442e+01 6.326199494949494806e+01
5.148729482323232531e+01 5.920525568181817988e+01 6.337555239898989612e+01
5.156695864898989612e+01 5.946026672979797922e+01 6.353081597222222143e+01
5.172707544191919027e+01 5.969156407828283051e+01 6.363916508838384090e+01
5.183917297979797922e+01 5.993087121212121104e+01 6.379734848484848442e+01
5.197336647727272663e+01 6.016923137626262275e+01 6.387551294191919027e+01
5.205709438131312794e+01 6.036580650252525260e+01 6.393982796717171624e+01
5.225520833333333570e+01 6.065372474747474740e+01 6.415877525252524549e+01
5.231640625000000000e+01 6.084576231060606233e+01 6.424017518939393767e+01
5.245983270202020066e+01 6.111197916666666430e+01 6.436213699494949481e+01
5.247383996212121104e+01 6.115313289141413833e+01 6.435420612373737015e+01
5.181194760101010388e+01 6.013076073232323182e+01 6.364007260101010388e+01
5.106889204545454675e+01 5.849613320707070585e+01 6.284067234848485128e+01
5.055737058080808310e+01 5.757047032828283051e+01 6.242353219696969546e+01
5.037263257575757791e+01 5.727935606060606233e+01 6.232212752525252597e+01
5.023291508838384090e+01 5.694582544191919027e+01 6.214279513888888573e+01
5.001069286616161946e+01 5.656403882575757791e+01 6.197202493686868507e+01
4.984726167929292728e+01 5.626298137626262275e+01 6.181601167929292728e+01
4.996389678030303116e+01 5.638955965909090651e+01 6.195221748737373701e+01
5.033909406565656752e+01 5.694278724747474740e+01 6.234714330808080973e+01
5.048966224747474740e+01 5.722861426767676818e+01 6.251633522727272663e+01
5.047916666666666430e+01 5.723184974747474740e+01 6.249936868686868507e+01
5.051803188131312794e+01 5.730780460858586167e+01 6.258053188131312794e+01
5.069109059343434609e+01 5.755598958333333570e+01 6.274601483585858830e+01
5.087290877525252597e+01 5.786391256313131493e+01 6.295103377525252597e+01
5.099980271464646364e+01 5.810254892676767469e+01 6.308534564393939092e+01
5.115285669191919027e+01 5.840743371212121104e+01 6.326317866161615910e+01
5.120651830808080973e+01 5.858357007575757791e+01 6.333783143939393767e+01
5.139733270202020066e+01 5.883246527777777857e+01 6.349281881313131493e+01
5.149984217171716949e+01 5.900868055555555713e+01 6.360274621212121104e+01
5.163569286616161946e+01 5.925958806818182012e+01 6.375911458333333570e+01
5.174984217171716949e+01 5.950536616161615910e+01 6.386947601010101039e+01
5.182686237373737725e+01 5.973642676767676818e+01 6.400047348484848442e+01
5.201041666666666430e+01 5.996732954545454675e+01 6.414330808080808310e+01
5.207599431818182012e+01 6.016863952020202078e+01 6.423082386363635976e+01
5.225919349747474740e+01 6.047320864898989612e+01 6.443580334595959869e+01
5.234706439393939092e+01 6.071859217171716949e+01 6.455460858585858830e+01
5.245947758838384090e+01 6.095142834595959869e+01 6.462409248737374412e+01
5.266923137626262275e+01 6.121989425505050519e+01 6.480259627525252597e+01
5.273851799242424221e+01 6.142980587121212466e+01 6.485199652777777146e+01
5.289094065656565391e+01 6.173516414141413833e+01 6.503929924242424931e+01
5.298184974747474740e+01 6.198106060606060908e+01 6.512058080808080263e+01
5.315530303030303116e+01 6.228503787878787534e+01 6.526199494949494806e+01
5.326598011363636687e+01 6.245963541666666430e+01 6.535799400252524549e+01
5.338955965909090651e+01 6.271010890151514872e+01 6.548551925505050519e+01
5.350986426767676818e+01 6.295257260101010388e+01 6.562602588383838054e+01
5.363557449494949481e+01 6.324810606060606233e+01 6.573074494949494806e+01
5.386142676767676818e+01 6.351104797979797922e+01 6.591082702020202078e+01
5.360132575757575779e+01 6.324305555555555713e+01 6.566351010101010388e+01
5.273611111111111427e+01 6.171859217171716949e+01 6.471480429292928704e+01
5.193379103535353636e+01 6.016690340909090651e+01 6.396046401515151558e+01
5.167140151515151558e+01 5.952572601010101039e+01 6.382970328282828376e+01
5.159666982323232531e+01 5.931999684343434609e+01 6.374992108585858830e+01
5.139464962121212466e+01 5.894594381313131493e+01 6.356321022727272663e+01
5.116386521464646364e+01 5.854123263888888573e+01 6.338151041666666430e+01
5.107295612373737725e+01 5.827544981060606233e+01 6.329296875000000000e+01
5.126913667929292728e+01 5.855685763888888573e+01 6.350729955808080973e+01
5.149084595959595845e+01 5.896732954545454675e+01 6.378898358585858830e+01
5.158136047979797922e+01 5.914591224747474740e+01 6.384887941919191690e+01
5.155650252525252597e+01 5.914409722222222143e+01 6.383869949494949481e+01
5.160306186868687206e+01 5.924968434343434609e+01 6.392960858585858830e+01
5.175623421717171624e+01 5.948113952020202078e+01 6.405752840909090651e+01
5.185842803030303116e+01 5.974542297979797922e+01 6.419712752525252597e+01
5.205579229797979934e+01 6.000828598484848442e+01 6.437460542929292728e+01
5.214701704545454675e+01 6.026412563131312794e+01 6.451491477272726627e+01
5.230050505050505194e+01 6.051893939393939092e+01 6.464977904040404155e+01
5.234051452020202078e+01 6.072151199494949481e+01 6.476412563131313505e+01
5.249992108585858830e+01 6.091153724747474740e+01 6.487192234848484418e+01
5.254580965909090651e+01 6.117396622474747403e+01 6.499025410353534937e+01
5.270864898989898961e+01 6.138683712121212466e+01 6.512642045454545325e+01
5.291445707070707272e+01 6.165593434343434609e+01 6.530303030303029743e+01
5.298595328282828376e+01 6.186884469696969546e+01 6.541414141414141170e+01
5.314157196969696884e+01 6.214141414141413833e+01 6.550015782828282340e+01
5.324427872474747403e+01 6.238821811868687206e+01 6.555567392676768179e+01
5.334832702020202078e+01 6.260211489898989612e+01 6.561947601010101039e+01
5.350015782828283051e+01 6.285574494949494806e+01 6.576104797979797922e+01
5.355504261363636687e+01 6.308802872474747403e+01 6.584229008838383379e+01
5.374589646464646364e+01 6.333964646464646364e+01 6.597601010101010388e+01
5.384576231060606233e+01 6.353831281565656752e+01 6.604715119949494806e+01
5.384130366161615910e+01 6.354695391414141170e+01 6.602138573232323893e+01
5.314630681818182012e+01 6.248011363636363313e+01 6.530697601010101039e+01
5.245209911616161946e+01 6.099487058080808310e+01 6.465159406565656752e+01
5.203523516414141170e+01 6.026377051767676818e+01 6.433668718434343248e+01
5.198216540404040131e+01 6.006960227272727337e+01 6.427746212121212466e+01
5.187756470959595845e+01 5.986841066919191690e+01 6.419558869949494806e+01
5.168536931818182012e+01 5.950576073232323182e+01 6.402975063131313505e+01
5.167534722222222143e+01 5.938683712121212466e+01 6.399968434343434609e+01
5.192309816919191690e+01 5.970150726010101039e+01 6.425785195707071296e+01
5.201246843434343248e+01 5.998106060606060908e+01 6.439883207070707272e+01
5.200868055555555713e+01 6.000047348484848442e+01 6.438446969696970257e+01
5.195675505050505194e+01 5.996038510101010388e+01 6.436726641414141170e+01
5.205733112373737725e+01 6.006111900252525260e+01 6.445158617424242209e+01
5.218465909090909349e+01 6.027414772727272663e+01 6.459406565656566102e+01
5.233660827020202078e+01 6.055883049242424221e+01 6.478294665404040131e+01
5.245486111111111427e+01 6.076878156565656752e+01 6.490167297979797922e+01
5.253819444444444287e+01 6.093892045454545325e+01 6.499668560606060908e+01
5.266469381313131493e+01 6.117084911616161946e+01 6.513265467171717660e+01
5.269712752525252597e+01 6.132544191919191690e+01 6.519712752525252597e+01
5.281762941919191690e+01 6.154253472222222143e+01 6.532110164141414543e+01
5.291919191919191690e+01 6.171654040404040131e+01 6.541098484848484418e+01
5.303910195707070585e+01 6.191599589646464352e+01 6.555456912878787534e+01
5.315467171717171624e+01 6.212373737373737725e+01 6.566019570707071296e+01
5.320391414141413833e+01 6.230239898989898961e+01 6.571606691919191690e+01
5.337231691919191690e+01 6.258412247474747403e+01 6.583459595959595845e+01
5.348346748737373701e+01 6.280228061868687206e+01 6.587314551767676107e+01
5.361051925505050519e+01 6.305812026515151558e+01 6.595947758838383379e+01
5.364583333333333570e+01 6.314804292929292728e+01 6.596938131313130782e+01
5.314030934343434609e+01 6.240088383838384090e+01 6.547095959595959869e+01
5.234501262626262275e+01 6.083727904040404155e+01 6.466966540404040131e+01
5.184023832070707272e+01 5.977868529040404155e+01 6.414910827020202078e+01
5.166654829545454675e+01 5.945726799242424221e+01 6.400856218434343248e+01
5.154048295454545325e+01 5.914417613636363313e+01 6.386955492424242209e+01
5.135771780303030454e+01 5.875797032828283051e+01 6.367905618686868507e+01
5.118588226010101039e+01 5.842451862373737725e+01 6.355914614898989612e+01
5.124546243686868507e+01 5.845190183080808310e+01 6.363356218434343248e+01
5.156766887626262275e+01 5.893256786616161946e+01 6.395119160353535648e+01
5.164891098484848442e+01 5.911166351010101039e+01 6.405026830808080263e+01
5.163036616161615910e+01 5.912594696969696884e+01 6.401373106060606233e+01
5.160140467171716949e+01 5.916122159090909349e+01 6.405105744949494806e+01
5.171389678030303116e+01 5.933589804292929415e+01 6.418233112373737015e+01
5.186738478535353636e+01 5.961596433080808310e+01 6.433944917929292728e+01
5.209481534090909349e+01 5.987622316919191690e+01 6.448054766414141170e+01
5.215135732323232531e+01 6.012263257575757791e+01 6.463194444444444287e+01
5.223579545454545325e+01 6.026751893939393767e+01 6.469523358585858830e+01
5.232196969696969546e+01 6.052114898989898961e+01 6.482417929292928704e+01
5.241193181818182012e+01 6.068308080808080973e+01 6.490467171717172334e+01
5.252880366161615910e+01 6.090980113636363313e+01 6.504221906565656752e+01
5.266374684343434609e+01 6.110377209595959869e+01 6.514875315656566102e+01
5.272632575757575779e+01 6.129782196969696884e+01 6.523800505050505194e+01
5.288308869949494806e+01 6.155890940656565391e+01 6.538624526515151558e+01
5.293714488636363313e+01 6.177063604797979934e+01 6.544693023989898961e+01
5.308065025252525260e+01 6.197585227272727337e+01 6.556613005050505194e+01
5.324865845959595845e+01 6.224013573232323182e+01 6.571251578282827666e+01
5.333049242424242209e+01 6.242866161616161946e+01 6.577241161616161946e+01
5.340423768939393767e+01 6.264824021464646364e+01 6.584378945707071296e+01
5.353243371212121104e+01 6.282536300505050519e+01 6.589970012626262985e+01
5.365317234848485128e+01 6.308435921717171624e+01 6.598729482323231821e+01
5.374605429292929415e+01 6.330523989898989612e+01 6.607149621212121815e+01
5.386355744949494806e+01 6.355074179292929415e+01 6.615664457070707272e+01
5.378353851010101039e+01 6.346867108585858830e+01 6.603953598484848442e+01
5.295434816919191690e+01 6.207398200757575779e+01 6.514500473484848442e+01
5.206317077020202078e+01 6.027008364898989612e+01 6.426298137626262985e+01
5.159351325757575779e+01 5.932646780303030454e+01 6.382552083333333570e+01
5.146476483585858830e+01 5.900643150252525260e+01 6.371429135101010388e+01
5.126866319444444287e+01 5.862156723484848442e+01 6.353034248737373701e+01
5.103306502525252597e+01 5.815964330808080973e+01 6.331242108585858830e+01
5.080981691919191690e+01 5.778693181818182012e+01 6.310211489898989612e+01
5.091098484848485128e+01 5.788762626262626299e+01 6.321322601010101039e+01
5.124948705808080973e+01 5.839374210858586167e+01 6.357966382575757791e+01
5.134911616161615910e+01 5.861395202020202078e+01 6.366193181818182012e+01
5.133001893939393767e+01 5.862610479797979934e+01 6.367550505050505194e+01
5.135081281565656752e+01 5.867294034090909349e+01 6.369566761363636687e+01
5.149877683080808310e+01 5.892475536616161946e+01 6.385752051767676818e+01
5.169850852272727337e+01 5.918146306818182012e+01 6.402710700757575069e+01
5.179340277777777857e+01 5.947616792929292728e+01 6.415703914141414543e+01
5.193907828282828376e+01 5.970738636363636687e+01 6.430350378787878185e+01
5.200670770202020066e+01 5.990222537878787534e+01 6.439054608585858830e+01
5.211706912878787534e+01 6.014563604797979934e+01 6.451085069444444287e+01
5.222439236111111427e+01 6.032540246212121104e+01 6.461059816919191690e+01
5.233424084595959869e+01 6.053547190656565391e+01 6.474459438131313505e+01
5.246085858585858830e+01 6.077951388888888573e+01 6.488115530303029743e+01
5.248879419191919027e+01 6.096859217171716949e+01 6.493876262626262985e+01
5.267791193181817988e+01 6.119669349747474740e+01 6.509836647727273373e+01
5.278760258838384090e+01 6.140376420454545325e+01 6.520032354797979224e+01
5.292708333333333570e+01 6.165246212121212466e+01 6.533475378787878185e+01
5.306293402777777857e+01 6.190305397727272663e+01 6.548259943181818699e+01
5.314287405303030454e+01 6.210799400252525260e+01 6.554644097222222854e+01
5.327616003787878896e+01 6.237701231060606233e+01 6.565210700757575069e+01
5.336635890151514872e+01 6.256632733585858830e+01 6.569053819444444287e+01
5.350236742424242209e+01 6.282133838383838054e+01 6.575868055555555713e+01
5.361655618686868507e+01 6.305847537878787534e+01 6.581952335858585457e+01
5.379872948232323182e+01 6.333660827020202078e+01 6.598433554292928704e+01
5.389543876262626299e+01 6.356510416666666430e+01 6.609240845959595845e+01
5.385093118686868507e+01 6.351270517676767469e+01 6.600355113636364024e+01
5.304166666666666430e+01 6.219460227272727337e+01 6.512058080808080263e+01
5.206198705808080973e+01 6.028184185606060908e+01 6.416252367424242209e+01
5.154454703282828376e+01 5.934394728535353636e+01 6.371784248737373701e+01
5.145675505050505194e+01 5.900426136363636687e+01 6.360653409090909349e+01
5.130650252525252597e+01 5.871180555555555713e+01 6.349636994949494806e+01
5.101601957070707272e+01 5.824597537878787534e+01 6.321772411616161946e+01
5.091717960858586167e+01 5.793548768939393767e+01 6.310752051767676818e+01
5.100047348484848442e+01 5.806344696969696884e+01 6.322821969696969546e+01
5.126089015151514872e+01 5.855918560606060908e+01 6.352272727272727337e+01
5.142179608585858830e+01 5.881289457070707272e+01 6.366374684343434609e+01
5.137058080808080973e+01 5.878409090909090651e+01 6.362310606060606233e+01
5.139338699494949481e+01 5.883688446969696884e+01 6.366216856060606233e+01
5.151341540404040131e+01 5.903330176767676818e+01 6.377477904040404155e+01
5.169661458333333570e+01 5.934576231060606233e+01 6.397265625000000000e+01
5.182780934343434609e+01 5.962799873737373701e+01 6.410558712121212466e+01
5.196243686868687206e+01 5.984406565656565391e+01 6.424179292929292728e+01
5.211008522727272663e+01 6.014922664141413833e+01 6.442621527777777146e+01
5.217795138888888573e+01 6.030784406565656752e+01 6.448982007575757791e+01
5.226455965909090651e+01 6.053144728535353636e+01 6.458447758838383379e+01
5.237050189393939092e+01 6.070288825757575779e+01 6.467037563131313505e+01
5.248374368686868507e+01 6.092676767676767469e+01 6.481912878787878185e+01
5.258759469696969546e+01 6.118150252525252597e+01 6.495154671717172334e+01
5.267956912878787534e+01 6.136549084595959869e+01 6.505062342171717660e+01
5.289867424242424221e+01 6.168023989898989612e+01 6.520044191919191690e+01
5.298362531565656752e+01 6.188592960858586167e+01 6.530938289141414543e+01
5.308996212121212466e+01 6.215167297979797922e+01 6.536584595959595845e+01
5.318868371212121104e+01 6.236387310606060908e+01 6.541500946969696884e+01
5.331119791666666430e+01 6.256703756313131493e+01 6.548985953282827666e+01
5.341473327020202078e+01 6.276321811868687206e+01 6.557477114898989612e+01
5.350694444444444287e+01 6.296796085858586167e+01 6.563967803030303116e+01
5.364386047979797922e+01 6.319925820707070585e+01 6.575386679292928704e+01
5.376534880050505194e+01 6.341607481060606233e+01 6.585357481060606233e+01
5.387894570707070585e+01 6.361963383838384090e+01 6.594823232323231821e+01
5.346125315656565391e+01 6.299266098484848442e+01 6.543473800505050519e+01
5.241619318181817988e+01 6.118892045454545325e+01 6.434801136363635976e+01
5.168189709595959869e+01 5.961497790404040131e+01 6.368821022727272663e+01
5.142120422979797922e+01 5.911612215909090651e+01 6.348796559343434609e+01
5.140502683080808310e+01 5.896184501262626299e+01 6.345916193181817988e+01
5.120363794191919027e+01 5.865013415404040131e+01 6.328018465909090651e+01
5.101976799242424221e+01 5.834694602272727337e+01 6.312156723484848442e+01
5.110203598484848442e+01 5.837239583333333570e+01 6.318284406565656752e+01
5.136580650252525260e+01 5.882997948232323182e+01 6.346050347222222143e+01
5.148133680555555713e+01 5.903815498737373701e+01 6.357177241161615910e+01
5.140218592171716949e+01 5.897762784090909349e+01 6.349893465909090651e+01
5.143181818181817988e+01 5.899526515151514872e+01 6.350394570707070585e+01
5.152923768939393767e+01 5.914539930555555713e+01 6.363229955808080973e+01
5.168655303030303116e+01 5.942313762626262275e+01 6.382449494949494806e+01
5.184805082070707272e+01 5.973252051767676818e+01 6.397494476010101039e+01
5.195817550505050519e+01 5.995833333333333570e+01 6.410479797979797922e+01
5.205445075757575779e+01 6.020517676767676818e+01 6.420517676767676107e+01
5.214717487373737725e+01 6.039007260101010388e+01 6.431747159090909349e+01
5.226826862373737725e+01 6.059023832070707272e+01 6.443730271464646364e+01
5.234789299242424221e+01 6.080985637626262275e+01 6.456064551767676107e+01
5.239977904040404155e+01 6.093955176767676818e+01 6.461174242424242209e+01
5.253334122474747403e+01 6.118706597222222143e+01 6.474041193181818699e+01
5.263458806818182012e+01 6.142246685606060908e+01 6.477316130050505194e+01
5.281289457070707272e+01 6.169215593434343248e+01 6.494799558080808310e+01
5.294258996212121104e+01 6.193848642676767469e+01 6.502781723484848442e+01
5.300868055555555713e+01 6.215214646464646364e+01 6.505192550505050519e+01
5.313952020202020066e+01 6.235369318181817988e+01 6.512310606060606233e+01
5.323950441919191690e+01 6.255910669191919027e+01 6.520257260101010388e+01
5.336383364898989612e+01 6.280796243686868507e+01 6.534757733585858830e+01
5.344760101010101039e+01 6.300678661616161946e+01 6.546196338383838054e+01
5.328089488636363313e+01 6.273780776515151558e+01 6.520703125000000000e+01
5.234000157828283051e+01 6.106569602272727337e+01 6.413908617424242209e+01
5.142124368686868507e+01 5.924084595959595845e+01 6.323074494949494806e+01
5.102533143939393767e+01 5.847261679292929415e+01 6.292589962121212466e+01
5.089409722222222143e+01 5.819049873737373701e+01 6.283554292929292728e+01
5.071732954545454675e+01 5.789962121212121104e+01 6.269207702020202078e+01
5.050090751262626299e+01 5.746302872474747403e+01 6.248654513888888573e+01
5.034221117424242209e+01 5.726108743686868507e+01 6.235104955808080973e+01
5.060929608585858830e+01 5.753590593434343248e+01 6.258483270202020066e+01
5.087188289141413833e+01 5.803649779040404155e+01 6.288261521464646364e+01
5.093142361111111427e+01 5.817810921717171624e+01 6.295304608585858830e+01
5.088648200757575779e+01 5.811422821969696884e+01 6.285538983585858830e+01
5.096776357323232531e+01 5.824301609848485128e+01 6.293903882575757791e+01
5.112290877525252597e+01 5.848354640151514872e+01 6.310617897727272663e+01
5.133692392676767469e+01 5.883834438131312794e+01 6.330835700757575779e+01
5.142771464646464352e+01 5.912152777777777857e+01 6.348090277777777857e+01
5.155208333333333570e+01 5.935669191919191690e+01 6.356944444444444287e+01
5.162918244949494806e+01 5.959019886363636687e+01 6.366753472222222143e+01
5.174621212121212466e+01 5.975583964646464352e+01 6.378708964646464352e+01
5.187886679292929415e+01 6.000765467171716949e+01 6.390774936868687206e+01
5.199696180555555713e+01 6.020056029040404155e+01 6.399711963383838054e+01
5.208491161616161946e+01 6.047869318181817988e+01 6.413115530303029743e+01
5.226262626262626299e+01 6.071890782828283051e+01 6.422601010101010388e+01
5.235574494949494806e+01 6.094665404040404155e+01 6.431534090909090651e+01
5.248441445707070585e+01 6.123851799242424221e+01 6.444258996212121815e+01
5.260207544191919027e+01 6.146839488636363313e+01 6.451605902777777146e+01
5.276416508838384090e+01 6.172533933080808310e+01 6.462701231060606233e+01
5.281869476010101039e+01 6.195284880050505194e+01 6.471074021464646364e+01
5.300220959595959869e+01 6.218923611111111427e+01 6.483175505050505194e+01
5.307196969696969546e+01 6.237263257575757791e+01 6.492329545454545325e+01
5.317743844696969546e+01 6.258037405303030454e+01 6.500209122474747403e+01
5.327880366161615910e+01 6.278432765151514872e+01 6.513912563131313505e+01
5.338754734848485128e+01 6.300639204545454675e+01 6.522482638888888573e+01
5.356297348484848442e+01 6.327241161616161946e+01 6.537121212121212466e+01
5.345643939393939092e+01 6.316477272727272663e+01 6.521638257575757791e+01
5.250145991161615910e+01 6.158542455808080973e+01 6.408858112373737015e+01
5.140183080808080973e+01 5.952951388888888573e+01 6.296259469696969546e+01
5.087030460858586167e+01 5.843848642676767469e+01 6.257705965909090651e+01
5.070931976010101039e+01 5.812772253787878896e+01 6.252260890151514872e+01
5.055200441919191690e+01 5.779300820707070585e+01 6.231889204545454675e+01
5.036103219696969546e+01 5.734651199494949481e+01 6.212870896464646364e+01
5.012223800505050519e+01 5.698303345959595845e+01 6.194752209595959869e+01
5.022249842171716949e+01 5.707019412878787534e+01 6.206798453282828376e+01
5.051574337121212466e+01 5.760128630050505194e+01 6.239058554292929415e+01
5.067270359848485128e+01 5.786809501262626299e+01 6.251661142676767469e+01
5.065029198232323182e+01 5.790707859848485128e+01 6.249056976010101039e+01
5.065482954545454675e+01 5.794854797979797922e+01 6.251657196969696884e+01
5.081029040404040131e+01 5.818813131313131493e+01 6.267834595959595845e+01
5.098520359848485128e+01 5.848330965909090651e+01 6.283937026515151558e+01
5.116276041666666430e+01 5.882863794191919027e+01 6.304817708333333570e+01
5.133439867424242209e+01 5.911643781565656752e+01 6.319771938131312794e+01
5.141698232323232531e+01 5.935085227272727337e+01 6.331707702020202078e+01
5.158956755050505194e+01 5.957836174242424221e+01 6.342053345959595845e+01
5.165175189393939092e+01 5.983183396464646364e+01 6.351065340909090651e+01
5.186158459595959869e+01 6.012184343434343248e+01 6.365340909090909349e+01
5.191690340909090651e+01 6.036876578282828376e+01 6.375197285353535648e+01
5.205843592171716949e+01 6.065060763888888573e+01 6.383258364898989612e+01
5.219057765151514872e+01 6.095241477272727337e+01 6.392874053030303116e+01
5.236521464646464352e+01 6.122569444444444287e+01 6.407323232323231821e+01
5.248559816919191690e+01 6.149206912878787534e+01 6.421002998737374412e+01
5.256068497474747403e+01 6.169120896464646364e+01 6.427675189393939092e+01
5.269708806818182012e+01 6.200643150252525260e+01 6.444219539141414543e+01
5.283183396464646364e+01 6.226491477272727337e+01 6.457694128787878185e+01
5.298161300505050519e+01 6.253985164141413833e+01 6.470667613636364024e+01
5.309015940656565391e+01 6.273252051767676818e+01 6.476976799242424931e+01
5.255977746212121104e+01 6.200785195707070585e+01 6.417767518939393767e+01
5.166710069444444287e+01 6.044156407828283051e+01 6.314389993686868507e+01
5.103184185606060908e+01 5.927363478535353636e+01 6.258092645202020066e+01
5.091177398989898961e+01 5.894128787878787534e+01 6.251609848484848442e+01
5.078689236111111427e+01 5.871934185606060908e+01 6.245671559343434609e+01
5.060156250000000000e+01 5.836103219696969546e+01 6.228527462121212466e+01
5.039650410353535648e+01 5.803270991161615910e+01 6.210168087121212466e+01
5.038963857323232531e+01 5.796034564393939092e+01 6.207713857323232531e+01
5.066035353535353636e+01 5.838667929292929415e+01 6.239614898989898961e+01
5.077915877525252597e+01 5.863963857323232531e+01 6.252016256313131493e+01
5.077860637626262275e+01 5.868422506313131493e+01 6.246815814393939092e+01
5.077663352272727337e+01 5.872139362373737725e+01 6.244661458333333570e+01
5.089942392676767469e+01 5.891646938131312794e+01 6.255567392676767469e+01
5.106340751262626299e+01 5.918604008838384090e+01 6.270766256313131493e+01
5.110432449494949481e+01 5.945501893939393767e+01 6.275110479797979934e+01
5.131143465909090651e+01 5.974798768939393767e+01 6.287598642676767469e+01
5.138514046717171624e+01 5.999530460858586167e+01 6.293832859848485128e+01
5.153480113636363313e+01 6.026570391414141170e+01 6.307457386363636687e+01
5.163612689393939092e+01 6.046204229797979934e+01 6.316927083333333570e+01
5.175635258838384090e+01 6.063308869949494806e+01 6.325872001262626299e+01
5.186288667929292728e+01 6.088293087121212466e+01 6.337140940656565391e+01
5.196989425505050519e+01 6.108431976010101039e+01 6.346531723484848442e+01
5.201487531565656752e+01 6.130922506313131493e+01 6.352024147727272663e+01
5.218039772727272663e+01 6.155255681818182012e+01 6.364125631313131493e+01
5.233708175505050519e+01 6.181435448232323182e+01 6.379841382575757791e+01
5.248836016414141170e+01 6.209663036616161946e+01 6.390692077020202078e+01
5.257694128787878896e+01 6.230089962121212466e+01 6.398792613636363313e+01
5.255595012626262275e+01 6.232394255050505194e+01 6.392369002525252597e+01
5.181040877525252597e+01 6.123307291666666430e+01 6.307934816919191690e+01
5.113419349747474740e+01 5.994921875000000000e+01 6.231711647727272663e+01
5.077213541666666430e+01 5.934678819444444287e+01 6.198693970959595845e+01
5.081348642676767469e+01 5.925461647727272663e+01 6.198914930555555713e+01
5.069941603535353636e+01 5.905815972222222143e+01 6.189038825757575779e+01
5.052560763888888573e+01 5.876377051767676818e+01 6.171563289141413833e+01
5.050142045454545325e+01 5.866871843434343248e+01 6.167945075757575779e+01
5.069069602272727337e+01 5.895711016414141170e+01 6.192838541666666430e+01
5.084824810606060908e+01 5.921977588383838054e+01 6.203858901515151558e+01
5.084398674242424221e+01 5.916043244949494806e+01 6.200086805555555713e+01
5.074779040404040131e+01 5.910258838383838054e+01 6.194381313131312794e+01
5.078854955808080973e+01 5.921200284090909349e+01 6.201724273989898961e+01
5.088202335858586167e+01 5.936071654040404155e+01 6.212555239898989612e+01
5.106585385101010388e+01 5.958605587121212466e+01 6.225508996212121104e+01
5.114563604797979934e+01 5.978389362373737725e+01 6.235696811868687206e+01
5.129932133838384090e+01 5.999171401515151558e+01 6.246756628787878896e+01
5.134974747474747403e+01 6.017771464646464352e+01 6.255981691919191690e+01
5.134031723484848442e+01 6.030843592171716949e+01 6.258163667929292728e+01
5.151329703282828376e+01 6.047683869949494806e+01 6.269969223484848442e+01
5.151605902777777857e+01 6.055883049242424221e+01 6.274001736111111427e+01
5.165321180555555713e+01 6.077300347222222143e+01 6.287164614898989612e+01
5.176893939393939092e+01 6.094018308080808310e+01 6.294965277777777857e+01
5.185337752525252597e+01 6.117329545454545325e+01 6.307323232323232531e+01
5.198843907828283051e+01 6.140415877525252597e+01 6.317199337121212466e+01
5.206640625000000000e+01 6.159513099747474740e+01 6.323638731060606233e+01
5.207410037878787534e+01 6.165112058080808310e+01 6.322735164141413833e+01
5.144902146464646364e+01 6.068655303030303116e+01 6.251436237373737725e+01
5.066591698232323182e+01 5.928365688131312794e+01 6.169606218434343248e+01
5.027714646464646364e+01 5.845486111111111427e+01 6.130192550505050519e+01
5.015569760101010388e+01 5.816706123737373701e+01 6.123619002525252597e+01
5.004703282828283051e+01 5.790404040404040131e+01 6.112768308080808310e+01
4.980733112373737725e+01 5.751834753787878896e+01 6.098441445707070585e+01
4.972395833333333570e+01 5.722964015151514872e+01 6.098705808080808310e+01
4.989614898989898961e+01 5.744775883838384090e+01 6.117550505050505194e+01
5.003357796717171624e+01 5.770103377525252597e+01 6.132745422979797922e+01
5.001964962121212466e+01 5.765175189393939092e+01 6.128795770202020066e+01
4.995928030303030454e+01 5.754876893939393767e+01 6.125126262626262275e+01
5.002004419191919027e+01 5.760606060606060908e+01 6.131202651515151558e+01
5.010894097222222143e+01 5.775477430555555713e+01 6.143359375000000000e+01
5.026353377525252597e+01 5.800580018939393767e+01 6.160665246212121104e+01
5.033072916666666430e+01 5.820115214646464352e+01 6.169294507575757791e+01
5.046484375000000000e+01 5.839224273989898961e+01 6.175303819444444287e+01
5.049412089646464352e+01 5.858771306818182012e+01 6.182287720959595845e+01
5.060207544191919027e+01 5.871050347222222143e+01 6.188553503787878896e+01
5.070782039141413833e+01 5.889942392676767469e+01 6.202473958333333570e+01
5.076384943181817988e+01 5.900217013888888573e+01 6.203752367424242209e+01
5.086280776515151558e+01 5.921586963383838054e+01 6.214847695707070585e+01
5.102300347222222143e+01 5.941394412878787534e+01 6.227331912878787534e+01
5.108810763888888573e+01 5.964855587121212466e+01 6.234473642676767469e+01
5.120257260101010388e+01 5.983499053030303116e+01 6.249171401515151558e+01
5.112239583333333570e+01 5.978085542929292728e+01 6.240222537878787534e+01
5.048177083333333570e+01 5.865664457070707272e+01 6.161939709595959869e+01
4.963731060606060908e+01 5.712042297979797922e+01 6.085243055555555713e+01
4.925670770202020066e+01 5.633814709595959869e+01 6.059809027777777857e+01
4.904596748737373701e+01 5.595442708333333570e+01 6.047889046717171624e+01
4.883321496212121104e+01 5.553144728535353636e+01 6.026850536616161946e+01
4.863091856060606233e+01 5.505389835858586167e+01 6.008514835858586167e+01
4.849802714646464352e+01 5.479316603535353636e+01 6.001428345959595845e+01
4.865715751262626299e+01 5.501432291666666430e+01 6.021839488636363313e+01
4.888640309343434609e+01 5.542791193181817988e+01 6.052008364898989612e+01
4.894223484848485128e+01 5.553424873737373701e+01 6.054466540404040131e+01
4.892025726010101039e+01 5.551258680555555713e+01 6.051179766414141170e+01
4.901436237373737725e+01 5.562263257575757791e+01 6.058380681818182012e+01
4.918296243686868507e+01 5.585941445707070585e+01 6.076313920454545325e+01
4.928132891414141170e+01 5.614212436868687206e+01 6.090048926767676818e+01
4.950090751262626299e+01 5.642688604797979934e+01 6.108645044191919027e+01
4.960834911616161946e+01 5.665080492424242209e+01 6.118363320707070585e+01
4.973690025252525260e+01 5.690672348484848442e+01 6.130255681818182012e+01
4.982019412878787534e+01 5.709670928030303116e+01 6.137606534090909349e+01
4.998240214646464352e+01 5.736166351010101039e+01 6.155879103535353636e+01
5.010736268939393767e+01 5.758763415404040131e+01 6.166023516414141170e+01
5.020383522727272663e+01 5.781005366161615910e+01 6.171188446969696884e+01
5.037354008838384090e+01 5.807997948232323182e+01 6.184955018939393767e+01
5.053929924242424221e+01 5.833585858585858830e+01 6.199463383838384090e+01
5.067538667929292728e+01 5.861430713383838054e+01 6.212740688131312794e+01
5.078610321969696884e+01 5.884150094696969546e+01 6.218430397727272663e+01
5.093189709595959869e+01 5.913865214646464352e+01 6.230389835858586167e+01
5.102868529040404155e+01 5.938600852272727337e+01 6.239895044191919027e+01
5.110140467171716949e+01 5.957773042929292728e+01 6.247861426767676818e+01
5.119760101010101039e+01 5.982559974747474740e+01 6.258096590909090651e+01
5.131317077020202078e+01 6.003523516414141170e+01 6.271279198232323182e+01
5.151747948232323182e+01 6.030251736111111427e+01 6.286280776515151558e+01
5.158727904040404155e+01 6.050110479797979934e+01 6.296038510101010388e+01
5.146042455808080973e+01 6.029707228535353636e+01 6.272383996212121104e+01
5.049124053030303116e+01 5.867637310606060908e+01 6.164985795454545325e+01
4.967586016414141170e+01 5.711383364898989612e+01 6.089476799242424221e+01
4.931656407828283051e+01 5.644992897727272663e+01 6.071965751262626299e+01
4.918726325757575779e+01 5.613281250000000000e+01 6.063028724747474740e+01
4.898212594696969546e+01 5.574143781565656752e+01 6.047218276515151558e+01
4.873599273989898961e+01 5.528965435606060908e+01 6.028128945707070585e+01
4.856380208333333570e+01 5.504801925505050519e+01 6.019764046717171624e+01
4.877860637626262275e+01 5.523788667929292728e+01 6.037472380050505194e+01
4.906178977272727337e+01 5.575702335858586167e+01 6.069105113636363313e+01
4.920217803030303116e+01 5.598753156565656752e+01 6.079940025252525260e+01
4.916946811868687206e+01 5.598796559343434609e+01 6.077237215909090651e+01
4.924254261363636687e+01 5.611075599747474740e+01 6.084292140151514872e+01
4.935969065656565391e+01 5.631076388888888573e+01 6.097522095959595845e+01
4.954075915404040131e+01 5.661383364898989612e+01 6.116118213383838054e+01
4.967400568181817988e+01 5.692005997474747403e+01 6.131857638888888573e+01
4.985941445707070585e+01 5.713687657828283051e+01 6.144164299242424221e+01
4.998930713383838054e+01 5.739871369949494806e+01 6.156380208333333570e+01
5.009130366161615910e+01 5.760471906565656752e+01 6.168126578282828376e+01
5.021673768939393767e+01 5.782500789141413833e+01 6.180985637626262275e+01
5.035688920454545325e+01 5.806443339646464352e+01 6.191733743686868507e+01
5.048717645202020066e+01 5.831609059343434609e+01 6.201100852272727337e+01
5.061075599747474740e+01 5.852174084595959869e+01 6.214752998737373701e+01
5.070947758838384090e+01 5.878981218434343248e+01 6.222462910353535648e+01
5.084430239898989612e+01 5.903117108585858830e+01 6.236245265151514872e+01
5.091422032828283051e+01 5.927564709595959869e+01 6.242968750000000000e+01
5.107769097222222143e+01 5.952876420454545325e+01 6.254770359848485128e+01
5.113450915404040131e+01 5.978002683080808310e+01 6.261620107323232531e+01
5.128961489898989612e+01 5.997017045454545325e+01 6.274779040404040131e+01
5.137965593434343248e+01 6.019310290404040131e+01 6.284335542929292728e+01
5.150560290404040131e+01 6.041232638888888573e+01 6.297703598484848442e+01
5.168726325757575779e+01 6.066658775252525260e+01 6.313865214646464352e+01
5.171689551767676818e+01 6.085925662878787534e+01 6.318848642676767469e+01
5.157133838383838054e+01 6.063952020202020066e+01 6.297348484848485128e+01
5.075797032828283051e+01 5.915569760101010388e+01 6.198934659090909349e+01
4.994649621212121104e+01 5.765009469696969546e+01 6.128061868686868507e+01
4.969353693181817988e+01 5.701582228535353636e+01 6.107248263888888573e+01
4.951882102272727337e+01 5.673252051767676818e+01 6.101361268939393767e+01
4.933901515151514872e+01 5.641571969696969546e+01 6.083933080808080973e+01
4.910164141414141170e+01 5.595691287878787534e+01 6.063320707070707272e+01
4.905642361111111427e+01 5.580026830808080973e+01 6.059919507575757791e+01
4.926487531565656752e+01 5.604896622474747403e+01 6.078349905303030454e+01
4.949068813131312794e+01 5.647222222222222143e+01 6.106265782828283051e+01
4.954403409090909349e+01 5.660890151515151558e+01 6.109422348484848442e+01
4.951661142676767469e+01 5.657374526515151558e+01 6.103807607323232531e+01
4.956889204545454675e+01 5.669152462121212466e+01 6.113596906565656752e+01
4.970714962121212466e+01 5.687507891414141170e+01 6.125497159090909349e+01
4.989086174242424221e+01 5.714449179292929415e+01 6.144168244949494806e+01
5.003468276515151558e+01 5.741915246212121104e+01 6.159781407828283051e+01
5.014090119949494806e+01 5.762906407828283051e+01 6.169187973484848442e+01
5.024080650252525260e+01 5.785065498737373701e+01 6.181830018939393767e+01
5.037263257575757791e+01 5.805808080808080973e+01 6.189678030303030454e+01
5.048713699494949481e+01 5.827627840909090651e+01 6.201649305555555713e+01
5.060558712121212466e+01 5.846859217171716949e+01 6.209690656565656752e+01
5.073287563131312794e+01 5.866848169191919027e+01 6.222498421717171624e+01
5.078361742424242209e+01 5.892440025252525260e+01 6.232291666666666430e+01
5.088360164141413833e+01 5.909193497474747403e+01 6.236987058080808310e+01
5.102943497474747403e+01 5.935677083333333570e+01 6.245446654040404155e+01
5.108574021464646364e+01 5.960467960858586167e+01 6.253381470959595845e+01
5.129154829545454675e+01 5.988372001262626299e+01 6.271784248737373701e+01
5.141954703282828376e+01 6.009189551767676818e+01 6.284205334595959869e+01
5.144882417929292728e+01 6.019535195707070585e+01 6.285460069444444287e+01
5.098204703282828376e+01 5.947715435606060908e+01 6.231932607323232531e+01
5.008862058080808310e+01 5.783230744949494806e+01 6.142795138888888573e+01
4.958068970959595845e+01 5.678128945707070585e+01 6.101803188131312794e+01
4.941595643939393767e+01 5.643852588383838054e+01 6.094831123737373701e+01
4.935377209595959869e+01 5.623208648989898961e+01 6.089512310606060908e+01
4.917511047979797922e+01 5.592495265151514872e+01 6.075228851010101039e+01
4.905050505050505194e+01 5.566903409090909349e+01 6.063210227272727337e+01
4.923828125000000000e+01 5.590510574494949481e+01 6.082571811868687206e+01
4.953089488636363313e+01 5.630946180555555713e+01 6.113080018939393767e+01
4.947324810606060908e+01 5.635913825757575779e+01 6.108751578282828376e+01
4.947979797979797922e+01 5.634438131313131493e+01 6.107938762626262275e+01
4.949202967171716949e+01 5.637271148989898961e+01 6.108467487373737725e+01
4.963896780303030454e+01 5.658325441919191690e+01 6.125181502525252597e+01
4.978468276515151558e+01 5.686454387626262275e+01 6.141836332070707272e+01
4.993083175505050519e+01 5.711233428030303116e+01 6.155914614898989612e+01
5.009244791666666430e+01 5.739358428030303116e+01 6.173938604797979934e+01
5.023571654040404155e+01 5.758009785353535648e+01 6.182157512626262275e+01
5.029916351010101039e+01 5.777233270202020066e+01 6.191327335858586167e+01
5.043308080808080973e+01 5.797395833333333570e+01 6.204750631313131493e+01
5.049348958333333570e+01 5.812148832070707272e+01 6.210365372474747403e+01
5.062515782828283051e+01 5.834627525252525260e+01 6.221969696969696884e+01
5.074376578282828376e+01 5.852359532828283051e+01 6.229837436868687206e+01
5.088952020202020066e+01 5.882607323232323182e+01 6.246875000000000000e+01
5.102114898989898961e+01 5.908854166666666430e+01 6.259406565656565391e+01
5.112223800505050519e+01 5.931841856060606233e+01 6.265380366161615910e+01
5.116769255050505194e+01 5.940964330808080973e+01 6.268458017676767469e+01
5.056727430555555713e+01 5.842822758838384090e+01 6.198599273989898961e+01
4.966011679292929415e+01 5.683735795454545325e+01 6.111560921717171624e+01
4.916919191919191690e+01 5.584801136363636687e+01 6.073674242424242209e+01
4.900828598484848442e+01 5.555673926767676818e+01 6.065680239898989612e+01
4.896701388888888573e+01 5.533617424242424221e+01 6.057749368686868507e+01
4.869614109848485128e+01 5.496018781565656752e+01 6.039342645202020066e+01
4.867660984848485128e+01 5.478803661616161946e+01 6.033080808080808310e+01
4.884150094696969546e+01 5.508345170454545325e+01 6.053452493686868507e+01
4.913857323232323182e+01 5.552430555555555713e+01 6.083775252525252597e+01
4.916954703282828376e+01 5.562993213383838054e+01 6.088056344696969546e+01
4.916422032828283051e+01 5.560929608585858830e+01 6.085203598484848442e+01
4.922348484848485128e+01 5.569886363636363313e+01 6.091177398989898961e+01
4.938210227272727337e+01 5.593686868686868507e+01 6.109011994949494806e+01
4.954975536616161946e+01 5.629202178030303116e+01 6.128223642676767469e+01
4.973666351010101039e+01 5.655910669191919027e+01 6.141343118686868507e+01
4.985077335858586167e+01 5.680815972222222143e+01 6.154442866161615910e+01
4.999834280303030454e+01 5.698177083333333570e+01 6.162255366161615910e+01
5.002256944444444287e+01 5.717976641414141170e+01 6.172869318181817988e+01
5.022514204545454675e+01 5.744120896464646364e+01 6.186718750000000000e+01
5.031139520202020066e+01 5.763083964646464352e+01 6.198169191919191690e+01
5.043844696969696884e+01 5.787926136363636687e+01 6.213525883838384090e+01
5.059335542929292728e+01 5.813091856060606233e+01 6.226286300505050519e+01
5.075654987373737725e+01 5.833972537878787534e+01 6.233893623737373701e+01
5.085590277777777857e+01 5.857922979797979934e+01 6.251120580808080973e+01
5.101621685606060908e+01 5.881893150252525260e+01 6.262290877525252597e+01
5.116465435606060908e+01 5.913214172979797922e+01 6.278507733585858830e+01
5.125915404040404155e+01 5.933712121212121104e+01 6.285164141414141170e+01
5.117033617424242209e+01 5.924372632575757791e+01 6.274199021464646364e+01
5.029738794191919027e+01 5.774956597222222143e+01 6.173520359848485128e+01
4.935227272727272663e+01 5.603787878787878896e+01 6.086758207070707272e+01
4.895742582070707272e+01 5.527544981060606233e+01 6.060767834595959869e+01
4.877324021464646364e+01 5.498567708333333570e+01 6.046515940656565391e+01
4.866575915404040131e+01 5.465865688131312794e+01 6.031269728535353636e+01
4.839784564393939092e+01 5.428263099747474740e+01 6.012590751262626299e+01
4.832559974747474740e+01 5.407638888888888573e+01 6.000994318181817988e+01
4.858345170454545325e+01 5.434639362373737725e+01 6.025800978535353636e+01
4.890459280303030454e+01 5.486040088383838054e+01 6.059682765151514872e+01
4.898524305555555713e+01 5.508072916666666430e+01 6.071362058080808310e+01
4.895375631313131493e+01 5.511821338383838054e+01 6.070943813131312794e+01
4.904620422979797922e+01 5.525516887626262275e+01 6.081593276515151558e+01
4.925477430555555713e+01 5.550556344696969546e+01 6.100572127525252597e+01
4.939263731060606233e+01 5.581924715909090651e+01 6.119203756313131493e+01
4.956478851010101039e+01 5.615033143939393767e+01 6.133278093434343248e+01
4.965009469696969546e+01 5.637957702020202078e+01 6.148547979797979934e+01
4.985499526515151558e+01 5.663750789141413833e+01 6.158337279040404155e+01
4.991860006313131493e+01 5.684363162878787534e+01 6.169401041666666430e+01
5.012728851010101039e+01 5.709919507575757791e+01 6.185219381313131493e+01
5.022601010101010388e+01 5.734311868686868507e+01 6.200931186868687206e+01
5.033214962121212466e+01 5.754032512626262275e+01 6.208199179292929415e+01
5.052327967171716949e+01 5.782536300505050519e+01 6.227043876262626299e+01
5.064358428030303116e+01 5.805835700757575779e+01 6.235318023989898961e+01
5.081490688131312794e+01 5.834536773989898961e+01 6.253681344696969546e+01
5.094089330808080973e+01 5.861261047979797922e+01 6.267716224747474740e+01
5.108104482323232531e+01 5.887002840909090651e+01 6.280958017676767469e+01
5.122383996212121104e+01 5.912140940656565391e+01 6.291954703282828376e+01
5.133388573232323182e+01 5.934509154040404155e+01 6.301254734848485128e+01
5.146594854797979934e+01 5.961604324494949481e+01 6.313261521464646364e+01
5.154308712121212466e+01 5.978440656565656752e+01 6.321006944444444287e+01
5.169862689393939092e+01 6.008246527777777857e+01 6.332994002525252597e+01
5.187626262626262275e+01 6.038731060606060908e+01 6.348547979797979934e+01
5.202166193181817988e+01 6.068043718434343248e+01 6.362409248737373701e+01
5.204111426767676818e+01 6.075370896464646364e+01 6.359367108585858830e+01
5.122356376262626299e+01 5.939938446969696884e+01 6.266690340909090651e+01
5.005129419191919027e+01 5.728677398989898961e+01 6.151215277777777857e+01
4.940139678030303116e+01 5.605764678030303116e+01 6.100682607323232531e+01
4.921208175505050519e+01 5.571729008838384090e+01 6.094850852272727337e+01
4.913186553030303116e+01 5.546693497474747403e+01 6.086387310606060908e+01
4.885866477272727337e+01 5.499676452020202078e+01 6.060708648989898961e+01
4.872419507575757791e+01 5.465096275252525260e+01 6.045083648989898961e+01
4.881881313131312794e+01 5.471575126262626299e+01 6.052761994949494806e+01
4.915573705808080973e+01 5.528105271464646364e+01 6.092767518939393767e+01
4.928772095959595845e+01 5.561190025252525260e+01 6.112200126262626299e+01
4.927801452020202078e+01 5.558199179292929415e+01 6.107394255050505194e+01
4.931912878787878896e+01 5.567692550505050519e+01 6.115530303030303116e+01
4.942408459595959869e+01 5.581818181818182012e+01 6.125252525252525260e+01
4.961493844696969546e+01 5.613861268939393767e+01 6.144006470959595845e+01
4.977398989898989612e+01 5.644176136363636687e+01 6.163573232323232531e+01
4.998690025252525260e+01 5.675710227272727337e+01 6.180287247474747403e+01
5.011564867424242209e+01 5.700469539141413833e+01 6.193083175505050519e+01
5.021070075757575779e+01 5.724494949494949481e+01 6.204040404040404155e+01
5.033696338383838054e+01 5.746575126262626299e+01 6.215640782828283051e+01
5.045837279040404155e+01 5.765897253787878896e+01 6.225351167929292728e+01
5.055772569444444287e+01 5.789910827020202078e+01 6.237985321969696884e+01
5.073544034090909349e+01 5.817988478535353636e+01 6.255409564393939092e+01
5.088375946969696884e+01 5.842195391414141170e+01 6.265112058080808310e+01
5.102185921717171624e+01 5.870067866161615910e+01 6.280989583333333570e+01
5.111833175505050519e+01 5.892388731060606233e+01 6.293114741161615910e+01
5.127181976010101039e+01 5.915187026515151558e+01 6.300051294191919027e+01
5.140830176767676818e+01 5.944933712121212466e+01 6.317803030303030454e+01
5.151124526515151558e+01 5.968327809343434609e+01 6.326913667929292728e+01
5.168560606060606233e+01 5.994523358585858830e+01 6.341871843434343248e+01
5.172281407828283051e+01 6.010333806818182012e+01 6.348023200757575779e+01
5.122845643939393767e+01 5.938802083333333570e+01 6.287176452020202078e+01
5.025165719696969546e+01 5.757125946969696884e+01 6.178811553030303116e+01
4.952320075757575779e+01 5.620454545454545325e+01 6.122964015151514872e+01
4.935827020202020066e+01 5.588462752525252597e+01 6.116871843434343248e+01
4.933818655303030454e+01 5.576779513888888573e+01 6.114484690656565391e+01
4.916840277777777857e+01 5.549305555555555713e+01 6.103046085858586167e+01
4.902280618686868507e+01 5.526759785353535648e+01 6.092842487373737725e+01
4.920470328282828376e+01 5.546953914141413833e+01 6.110842803030303116e+01
4.952343750000000000e+01 5.599408143939393767e+01 6.144136679292929415e+01
4.953065814393939092e+01 5.608968592171716949e+01 6.146847380050505194e+01
4.953184185606060908e+01 5.605993529040404155e+01 6.143698705808080973e+01
4.955977746212121104e+01 5.612906407828283051e+01 6.148828125000000000e+01
4.970446654040404155e+01 5.632709911616161946e+01 6.163076073232323182e+01
4.990234375000000000e+01 5.667664930555555713e+01 6.185815183080808310e+01
5.007248263888888573e+01 5.695647885101010388e+01 6.200177556818182012e+01
5.024439709595959869e+01 5.724281881313131493e+01 6.217447916666666430e+01
5.035089172979797922e+01 5.750477430555555713e+01 6.230054450757575779e+01
5.044247159090909349e+01 5.769152462121212466e+01 6.239133522727272663e+01
5.057907196969696884e+01 5.790845959595959869e+01 6.248200757575757791e+01
5.063770517676767469e+01 5.806463068181817988e+01 6.256352588383838054e+01
5.080078125000000000e+01 5.829257417929292728e+01 6.268430397727272663e+01
5.088080018939393767e+01 5.850469539141413833e+01 6.281893150252525260e+01
5.104367897727272663e+01 5.879478377525252597e+01 6.295845170454545325e+01
5.121543560606060908e+01 5.910527146464646364e+01 6.310669191919191690e+01
5.136793718434343248e+01 5.931601167929292728e+01 6.323220486111111427e+01
5.134666982323232531e+01 5.941185290404040131e+01 6.320572916666666430e+01
5.063829703282828376e+01 5.828476167929292728e+01 6.241465435606060908e+01
4.964670138888888573e+01 5.654048295454545325e+01 6.146646148989898961e+01
4.920572916666666430e+01 5.559051452020202078e+01 6.109130366161615910e+01
4.904407354797979934e+01 5.531285511363636687e+01 6.098488794191919027e+01
4.900074968434343248e+01 5.517420296717171624e+01 6.091141887626262275e+01
4.881088226010101039e+01 5.485097064393939092e+01 6.074317392676767469e+01
4.869614109848485128e+01 5.464437342171716949e+01 6.061596433080808310e+01
4.892329545454545325e+01 5.497316919191919027e+01 6.089678030303030454e+01
4.924068813131312794e+01 5.549700126262626299e+01 6.126104797979797922e+01
4.931407828282828376e+01 5.566650883838384090e+01 6.132686237373737725e+01
4.929407354797979934e+01 5.565534248737373701e+01 6.130149147727272663e+01
4.936592487373737725e+01 5.576017992424242209e+01 6.138139204545454675e+01
4.954016729797979934e+01 5.603811553030303116e+01 6.157694128787878896e+01
4.971918402777777857e+01 5.636596433080808310e+01 6.177852746212121104e+01
4.988987531565656752e+01 5.666575915404040131e+01 6.195521622474747403e+01
5.001507260101010388e+01 5.691153724747474740e+01 6.208451704545454675e+01
5.021894728535353636e+01 5.716481218434343248e+01 6.223125789141413833e+01
5.034820864898989612e+01 5.740013415404040131e+01 6.235467960858586167e+01
5.042783301767676818e+01 5.759797190656565391e+01 6.243998579545454675e+01
5.055721275252525260e+01 5.782930871212121104e+01 6.259051452020202078e+01
5.067657039141413833e+01 5.806277619949494806e+01 6.269140625000000000e+01
5.078164457070707272e+01 5.830721275252525260e+01 6.283783143939393767e+01
5.097510258838384090e+01 5.858621369949494806e+01 6.298804450757575779e+01
5.105744949494949481e+01 5.882638888888888573e+01 6.309611742424242209e+01
5.123768939393939092e+01 5.910116792929292728e+01 6.325031565656565391e+01
5.135527146464646364e+01 5.931076388888888573e+01 6.337010732323232531e+01
5.147439236111111427e+01 5.954225852272727337e+01 6.350595801767676818e+01
5.157169349747474740e+01 5.977260890151514872e+01 6.359236900252525260e+01
5.169898200757575779e+01 6.003278882575757791e+01 6.368998579545454675e+01
5.183530618686868507e+01 6.029695391414141170e+01 6.384161931818182012e+01
5.185653409090909349e+01 6.036900252525252597e+01 6.380997474747474740e+01
5.109911616161615910e+01 5.917645202020202078e+01 6.291429924242424221e+01
4.995833333333333570e+01 5.716193181818182012e+01 6.183948863636363313e+01
4.937638099747474740e+01 5.608834438131312794e+01 6.139500473484848442e+01
4.929703282828283051e+01 5.580697601010101039e+01 6.133585858585858830e+01
4.916114267676767469e+01 5.557544191919191690e+01 6.123342803030303116e+01
4.896018781565656752e+01 5.517893781565656752e+01 6.100943023989898961e+01
4.872415561868687206e+01 5.481317077020202078e+01 6.081853693181817988e+01
4.881541982323232531e+01 5.491579861111111427e+01 6.093584280303030454e+01
4.916059027777777857e+01 5.545525568181817988e+01 6.130800189393939092e+01
4.933278093434343248e+01 5.577564709595959869e+01 6.150213068181817988e+01
4.935160195707070585e+01 5.582587594696969546e+01 6.152663352272727337e+01
4.940944602272727337e+01 5.588072127525252597e+01 6.156979955808080973e+01
4.950122316919191690e+01 5.612338226010101039e+01 6.171934185606060908e+01
4.965167297979797922e+01 5.645880681818182012e+01 6.192897727272727337e+01
4.991007733585858830e+01 5.679486268939393767e+01 6.212298768939393767e+01
5.010708648989898961e+01 5.709919507575757791e+01 6.232110164141413833e+01
5.015763099747474740e+01 5.730914614898989612e+01 6.239595170454545325e+01
5.032058869949494806e+01 5.757169349747474740e+01 6.252907986111111427e+01
5.049514678030303116e+01 5.782406092171716949e+01 6.269669349747474740e+01
5.058333333333333570e+01 5.807686237373737725e+01 6.281423611111111427e+01
5.076937342171716949e+01 5.837448705808080973e+01 6.296444917929292728e+01
5.085795454545454675e+01 5.857623106060606233e+01 6.305145202020202078e+01
5.103606376262626299e+01 5.888959911616161946e+01 6.323555871212121104e+01
5.112941919191919027e+01 5.912168560606060908e+01 6.331723484848485128e+01
5.128645833333333570e+01 5.942376893939393767e+01 6.352099116161615910e+01
5.142949021464646364e+01 5.964934501262626299e+01 6.363924400252525260e+01
5.148031092171716949e+01 5.987298768939393767e+01 6.372936395202020066e+01
5.163983585858586167e+01 6.016682449494949481e+01 6.385890151515151558e+01
5.177296401515151558e+01 6.043000315656565391e+01 6.393000315656565391e+01
5.193544823232323182e+01 6.073090277777777857e+01 6.402446338383838054e+01
5.178227588383838054e+01 6.060582386363636687e+01 6.382110164141413833e+01
5.093146306818182012e+01 5.919124842171716949e+01 6.289247948232323182e+01
5.017660984848485128e+01 5.776941287878787534e+01 6.219949494949494806e+01
4.985787563131312794e+01 5.716011679292929415e+01 6.191264204545454675e+01
4.980717329545454675e+01 5.702008364898989612e+01 6.188466698232323182e+01
4.964236111111111427e+01 5.674605429292929415e+01 6.174936868686868507e+01
4.943181818181817988e+01 5.636963383838384090e+01 6.157828282828283051e+01
4.936991003787878896e+01 5.619693023989898961e+01 6.151242897727272663e+01
4.951179766414141170e+01 5.644929766414141170e+01 6.165905145202020066e+01
4.985108901515151558e+01 5.692226957070707272e+01 6.196346275252525260e+01
4.986083491161615910e+01 5.701882102272727337e+01 6.200319602272727337e+01
4.984142203282828376e+01 5.702718592171716949e+01 6.197399779040404155e+01
4.989492582070707272e+01 5.715234375000000000e+01 6.205922506313131493e+01
5.005886994949494806e+01 5.737563131313131493e+01 6.219191919191919027e+01
5.018126578282828376e+01 5.766059027777777857e+01 6.231163194444444287e+01
5.033609532828283051e+01 5.791279987373737725e+01 6.243158143939393767e+01
5.048859690656565391e+01 5.816962594696969546e+01 6.261122948232323182e+01
5.062263257575757791e+01 5.842029671717171624e+01 6.271859217171716949e+01
5.067297979797979934e+01 5.861663510101010388e+01 6.281628787878787534e+01
5.083139993686868507e+01 5.884749842171716949e+01 6.293067392676767469e+01
5.087930082070707272e+01 5.901913667929292728e+01 6.301424400252525260e+01
5.102651515151514872e+01 5.925299873737373701e+01 6.313289141414141170e+01
5.110854640151514872e+01 5.946176609848485128e+01 6.322628630050505194e+01
5.121646148989898961e+01 5.967858270202020066e+01 6.329900568181817988e+01
5.138403566919191690e+01 5.997131470959595845e+01 6.340060763888888573e+01
5.149151672979797922e+01 6.023504577020202078e+01 6.347099905303030454e+01
5.156242108585858830e+01 6.046535669191919027e+01 6.353227588383838054e+01
5.157899305555555713e+01 6.048066603535353636e+01 6.347892992424242209e+01
5.095588699494949481e+01 5.946977588383838054e+01 6.278274936868687206e+01
5.018185763888888573e+01 5.807753314393939092e+01 6.207453440656565391e+01
4.985483743686868507e+01 5.736146622474747403e+01 6.176377051767676818e+01
4.977690972222222143e+01 5.713028724747474740e+01 6.173619002525252597e+01
4.968722380050505194e+01 5.697904829545454675e+01 6.165565814393939092e+01
4.952312184343434609e+01 5.667810921717171624e+01 6.152485795454545325e+01
4.948942550505050519e+01 5.659674873737373701e+01 6.150583964646464352e+01
4.973244160353535648e+01 5.692104640151514872e+01 6.175658933080808310e+01
4.988166824494949481e+01 5.723188920454545325e+01 6.192680713383838054e+01
4.982319286616161946e+01 5.714610953282828376e+01 6.183092645202020066e+01
4.981549873737373701e+01 5.713352272727272663e+01 6.183506944444444287e+01
4.989780618686868507e+01 5.723461174242424221e+01 6.185961174242424221e+01
5.003026357323232531e+01 5.743951231060606233e+01 6.203594539141413833e+01
5.017420296717171624e+01 5.769456281565656752e+01 6.217404513888888573e+01
5.023046875000000000e+01 5.790265940656565391e+01 6.225666824494949481e+01
5.038849431818182012e+01 5.813691603535353636e+01 6.240617108585858830e+01
5.046969696969696884e+01 5.832181186868687206e+01 6.250363005050505194e+01
5.056277619949494806e+01 5.847786458333333570e+01 6.257855902777777857e+01
5.063253630050505194e+01 5.863206281565656752e+01 6.262843276515151558e+01
5.072419507575757791e+01 5.876475694444444287e+01 6.268947285353535648e+01
5.086410984848485128e+01 5.903787878787878896e+01 6.284548611111111427e+01
5.094420770202020066e+01 5.925781250000000000e+01 6.294310290404040131e+01
5.110681029040404155e+01 5.952095170454545325e+01 6.307571811868687206e+01
5.117546559343434609e+01 5.970340119949494806e+01 6.312480271464646364e+01
5.104805871212121104e+01 5.957788825757575779e+01 6.291627209595959869e+01
5.031419665404040131e+01 5.827442392676767469e+01 6.209718276515151558e+01
4.957922979797979934e+01 5.693260732323232531e+01 6.141698232323232531e+01
4.932342960858586167e+01 5.637961647727272663e+01 6.120190183080808310e+01
4.915696022727272663e+01 5.609430239898989612e+01 6.112855113636363313e+01
4.906178977272727337e+01 5.583404356060606233e+01 6.100449810606060908e+01
4.889121685606060908e+01 5.554588857323232531e+01 6.086359690656565391e+01
4.895340119949494806e+01 5.556751104797979934e+01 6.092657039141413833e+01
4.925063131313131493e+01 5.600394570707070585e+01 6.126278409090909349e+01
4.933514835858586167e+01 5.614291351010101039e+01 6.129237689393939092e+01
4.924731691919191690e+01 5.612831439393939092e+01 6.126136363636363313e+01
4.927067550505050519e+01 5.611584595959595845e+01 6.125899621212121104e+01
4.937985321969696884e+01 5.628357796717171624e+01 6.137937973484848442e+01
4.956589330808080973e+01 5.655737058080808310e+01 6.156036931818182012e+01
4.968734217171716949e+01 5.679813762626262275e+01 6.166571969696969546e+01
4.982552083333333570e+01 5.705279356060606233e+01 6.181731376262626299e+01
4.991070864898989612e+01 5.725003945707070585e+01 6.191781092171716949e+01
5.005851483585858830e+01 5.748622948232323182e+01 6.201148200757575779e+01
5.008858112373737725e+01 5.762930082070707272e+01 6.202829071969696884e+01
5.022837752525252597e+01 5.780855429292929415e+01 6.217266414141413833e+01
5.028981218434343248e+01 5.798851799242424221e+01 6.226866319444444287e+01
5.042803030303030454e+01 5.817171717171716949e+01 6.233917297979797922e+01
5.060574494949494806e+01 5.842297979797979934e+01 6.249652777777777857e+01
5.068260732323232531e+01 5.868623737373737725e+01 6.262136994949494806e+01
5.077138573232323182e+01 5.892684659090909349e+01 6.274392361111111427e+01
5.084710385101010388e+01 5.904659880050505194e+01 6.274072758838384090e+01
5.040285669191919027e+01 5.838849431818182012e+01 6.222340593434343248e+01
4.949810606060606233e+01 5.672001262626262275e+01 6.126057449494949481e+01
4.886695075757575779e+01 5.559138257575757791e+01 6.074258207070707272e+01
4.869823232323232531e+01 5.517297979797979934e+01 6.060022095959595845e+01
4.849005681818182012e+01 5.484217171717171624e+01 6.042739898989898961e+01
4.829655934343434609e+01 5.441556186868687206e+01 6.022664141414141170e+01
4.804407354797979934e+01 5.403633996212121104e+01 5.998094223484848442e+01
4.816974431818182012e+01 5.410629734848485128e+01 6.009161931818182012e+01
4.845888573232323182e+01 5.460866477272727337e+01 6.043173926767676818e+01
4.868173926767676818e+01 5.491895517676767469e+01 6.061529356060606233e+01
4.864133522727272663e+01 5.492148042929292728e+01 6.059209280303030454e+01
4.866583806818182012e+01 5.494898200757575779e+01 6.062638099747474740e+01
4.881423611111111427e+01 5.518686868686868507e+01 6.081581439393939092e+01
4.900670770202020066e+01 5.544373421717171624e+01 6.097088068181817988e+01
4.911983112373737725e+01 5.576661142676767469e+01 6.112882733585858830e+01
4.924116161616161946e+01 5.596212121212121104e+01 6.123516414141413833e+01
4.938131313131312794e+01 5.623768939393939092e+01 6.139946338383838054e+01
4.951878156565656752e+01 5.648784722222222143e+01 6.151483585858586167e+01
4.960010258838384090e+01 5.664824021464646364e+01 6.159015940656565391e+01
4.976294191919191690e+01 5.691982323232323182e+01 6.171338383838384090e+01
4.988687657828283051e+01 5.711825284090909349e+01 6.180559501262626299e+01
5.004419191919191690e+01 5.736647727272727337e+01 6.194823232323232531e+01
5.012397411616161946e+01 5.760266729797979934e+01 6.204995265151514872e+01
5.023275726010101039e+01 5.786422821969696884e+01 6.211407039141413833e+01
5.039113794191919027e+01 5.811904198232323182e+01 6.228997001262626299e+01
5.046855271464646364e+01 5.830520044191919027e+01 6.237338226010101039e+01
5.061533301767676818e+01 5.859102746212121104e+01 6.249633049242424221e+01
5.069345801767676818e+01 5.870703125000000000e+01 6.258155776515151558e+01
5.082441603535353636e+01 5.900213068181817988e+01 6.269199810606060908e+01
5.093963068181817988e+01 5.924944760101010388e+01 6.281257891414141170e+01
5.105508207070707272e+01 5.949210858585858830e+01 6.290577651515151558e+01
5.093978851010101039e+01 5.931289457070707272e+01 6.270604482323232531e+01
5.000694444444444287e+01 5.778866792929292728e+01 6.167045454545454675e+01
4.918312026515151558e+01 5.622147253787878896e+01 6.093532986111111427e+01
4.883068970959595845e+01 5.553728693181817988e+01 6.069464172979797922e+01
4.876874210858586167e+01 5.532256155303030454e+01 6.065684185606060908e+01
4.856202651515151558e+01 5.493892045454545325e+01 6.045849116161615910e+01
4.834047506313131493e+01 5.456285511363636687e+01 6.024925031565656752e+01
4.821732954545454675e+01 5.438099747474747403e+01 6.016761363636363313e+01
4.844669349747474740e+01 5.461998895202020066e+01 6.037235637626262275e+01
4.873559816919191690e+01 5.519030145202020066e+01 6.073622948232323182e+01
4.888458806818182012e+01 5.537859059343434609e+01 6.083802872474747403e+01
4.886221590909090651e+01 5.542424242424242209e+01 6.085732323232323182e+01
4.895912247474747403e+01 5.558775252525252597e+01 6.094649621212121104e+01
4.912444760101010388e+01 5.585598169191919027e+01 6.109682765151514872e+01
4.931324968434343248e+01 5.617972695707070585e+01 6.130330650252525260e+01
4.947892992424242209e+01 5.646693497474747403e+01 6.143394886363636687e+01
4.962578914141413833e+01 5.676341540404040131e+01 6.156897095959595845e+01
4.971373895202020066e+01 5.700619476010101039e+01 6.167128314393939092e+01
4.985842803030303116e+01 5.724321338383838054e+01 6.176941287878787534e+01
4.999656723484848442e+01 5.749088541666666430e+01 6.189461016414141170e+01
5.010495580808080973e+01 5.771606691919191690e+01 6.202556818181817988e+01
5.025284090909090651e+01 5.800583964646464352e+01 6.216287878787878896e+01
5.034086963383838054e+01 5.824080650252525260e+01 6.223828125000000000e+01
5.051313920454545325e+01 5.852481849747474740e+01 6.234568339646464352e+01
5.063809974747474740e+01 5.880555555555555713e+01 6.247948232323232531e+01
5.075359059343434609e+01 5.906261837121212466e+01 6.259828756313131493e+01
5.089109848484848442e+01 5.931849747474747403e+01 6.267787247474747403e+01
5.100733901515151558e+01 5.955279356060606233e+01 6.278085542929292728e+01
5.116871843434343248e+01 5.979782196969696884e+01 6.289141414141413833e+01
5.122810132575757791e+01 6.002860637626262275e+01 6.295600536616161946e+01
5.137689393939393767e+01 6.027320075757575779e+01 6.308869949494949481e+01
5.146038510101010388e+01 6.047143308080808310e+01 6.315514520202020066e+01
5.159225063131312794e+01 6.067053345959595845e+01 6.322009154040404155e+01
5.170868844696969546e+01 6.093390940656565391e+01 6.335957228535353636e+01
5.182717803030303116e+01 6.115640782828283051e+01 6.350078914141413833e+01
5.194274779040404155e+01 6.143454071969696884e+01 6.360404829545454675e+01
5.192467645202020066e+01 6.142893781565656752e+01 6.354288983585858830e+01
5.115569760101010388e+01 6.020967487373737725e+01 6.266469381313131493e+01
5.026519097222222143e+01 5.846847380050505194e+01 6.167065183080808310e+01
4.976996527777777857e+01 5.752927714646464352e+01 6.134461805555555713e+01
4.968315972222222143e+01 5.723492739898989612e+01 6.128338068181817988e+01
4.951160037878787534e+01 5.691153724747474740e+01 6.113817866161615910e+01
4.925118371212121104e+01 5.644894255050505194e+01 6.090790719696969546e+01
4.903247316919191690e+01 5.603752367424242209e+01 6.072770675505050519e+01
4.913431186868687206e+01 5.611994949494949481e+01 6.083522727272727337e+01
4.941153724747474740e+01 5.657204861111111427e+01 6.114244002525252597e+01
4.952694917929292728e+01 5.679225852272727337e+01 6.122628630050505194e+01
4.951235006313131493e+01 5.677497632575757791e+01 6.118043718434343248e+01
4.953318339646464352e+01 5.679533617424242209e+01 6.120079703282828376e+01
4.960156250000000000e+01 5.695020517676767469e+01 6.134635416666666430e+01
4.976870265151514872e+01 5.717290088383838054e+01 6.142716224747474740e+01
4.994566761363636687e+01 5.744440498737373701e+01 6.162480271464646364e+01
5.006459122474747403e+01 5.770348011363636687e+01 6.169258996212121104e+01
5.017148042929292728e+01 5.791343118686868507e+01 6.184935290404040131e+01
5.022427398989898961e+01 5.812941919191919027e+01 6.186994949494949481e+01
5.032705965909090651e+01 5.828555082070707272e+01 6.193248895202020066e+01
5.047762784090909349e+01 5.851203440656565391e+01 6.206538036616161946e+01
5.053034248737373701e+01 5.869906092171716949e+01 6.213151041666666430e+01
5.068643465909090651e+01 5.895600536616161946e+01 6.227103061868687206e+01
5.080634469696969546e+01 5.916114267676767469e+01 6.235258838383838054e+01
5.090818339646464352e+01 5.941938920454545325e+01 6.248836016414141170e+01
5.103270991161615910e+01 5.964350536616161946e+01 6.258684501262626299e+01
5.112622316919191690e+01 5.985838857323232531e+01 6.268398832070707272e+01
5.127201704545454675e+01 6.009019886363636687e+01 6.280800189393939092e+01
5.135282512626262275e+01 6.025244633838384090e+01 6.287791982323232531e+01
5.141536458333333570e+01 6.045687342171716949e+01 6.297865372474747403e+01
5.155977746212121104e+01 6.061454387626262275e+01 6.305377998737373701e+01
5.164263731060606233e+01 6.082445549242424221e+01 6.315336963383838054e+01
5.179044349747474740e+01 6.103618213383838054e+01 6.328839172979797922e+01
5.164532039141413833e+01 6.089658301767676818e+01 6.310901988636363313e+01
5.079103535353535648e+01 5.945391414141413833e+01 6.213557449494949481e+01
4.989030934343434609e+01 5.777304292929292728e+01 6.125284090909090651e+01
4.958534564393939092e+01 5.701274463383838054e+01 6.099869791666666430e+01
4.948015309343434609e+01 5.674861900252525260e+01 6.098867582070707272e+01
4.938226010101010388e+01 5.646196338383838054e+01 6.085069444444444287e+01
4.911541193181817988e+01 5.604249526515151558e+01 6.066560132575757791e+01
4.909674873737373701e+01 5.588936237373737725e+01 6.063052398989898961e+01
4.934323705808080973e+01 5.625295928030303116e+01 6.092814867424242209e+01
4.946097695707070585e+01 5.651684816919191690e+01 6.105567392676767469e+01
4.941189236111111427e+01 5.647391887626262275e+01 6.102600220959595845e+01
4.939386047979797922e+01 5.642384785353535648e+01 6.100591856060606233e+01
4.943611900252525260e+01 5.649956597222222143e+01 6.107532354797979934e+01
4.961150568181817988e+01 5.676444128787878896e+01 6.122750946969696884e+01
4.975702335858586167e+01 5.700149936868687206e+01 6.138707386363636687e+01
4.992084911616161946e+01 5.729221906565656752e+01 6.154726957070707272e+01
5.002734375000000000e+01 5.751377051767676818e+01 6.164476799242424221e+01
5.015830176767676818e+01 5.771685606060606233e+01 6.176215277777777857e+01
5.025994318181817988e+01 5.788683712121212466e+01 6.187736742424242209e+01
5.036395202020202078e+01 5.806849747474747403e+01 6.195202020202020066e+01
5.041228693181817988e+01 5.826708491161615910e+01 6.203223642676767469e+01
5.055421401515151558e+01 5.846803977272727337e+01 6.213360164141413833e+01
5.070565025252525260e+01 5.874463383838384090e+01 6.226862373737373701e+01
5.082433712121212466e+01 5.896164772727272663e+01 6.239015151515151558e+01
5.092155934343434609e+01 5.917992424242424221e+01 6.245943813131312794e+01
5.104549400252525260e+01 5.941907354797979934e+01 6.258384627525252597e+01
5.117680713383838054e+01 5.965834122474747403e+01 6.268201546717171624e+01
5.131143465909090651e+01 5.990739425505050519e+01 6.280985637626262275e+01
5.137847222222222143e+01 6.005681818181817988e+01 6.288746843434343248e+01
5.123216540404040131e+01 5.989125631313131493e+01 6.271922348484848442e+01
5.038123421717171624e+01 5.841090593434343248e+01 6.176665088383838054e+01
4.950635258838384090e+01 5.672810132575757791e+01 6.086556976010101039e+01
4.908499053030303116e+01 5.589922664141413833e+01 6.061592487373737725e+01
4.894661458333333570e+01 5.560728377525252597e+01 6.058518781565656752e+01
4.880709438131312794e+01 5.531309185606060908e+01 6.044045928030303116e+01
