5.241950757575757791e+01 6.817976641414141170e+01 5.530034722222222143e+01
5.245123106060606233e+01 6.836458333333332860e+01 5.540293560606060908e+01
5.245726799242424221e+01 6.851566445707071296e+01 5.544590435606060908e+01
5.268312026515151558e+01 6.868738162878787534e+01 5.561904198232323182e+01
5.284449968434343248e+01 6.879573074494949481e+01 5.571002998737373701e+01
5.293130523989898961e+01 6.896665877525252597e+01 5.581340751262626299e+01
5.303460385101010388e+01 6.909836647727273373e+01 5.596310763888888573e+01
5.307769097222222143e+01 6.933368844696970257e+01 5.600698390151514872e+01
5.318781565656565391e+01 6.947948232323231821e+01 5.613320707070707272e+01
5.330109690656565391e+01 6.964800347222222854e+01 5.623417771464646364e+01
5.336655618686868507e+01 6.977406881313130782e+01 5.628716856060606233e+01
5.329951862373737725e+01 6.973307291666667140e+01 5.622739109848485128e+01
5.290842013888888573e+01 6.913979640151515582e+01 5.579967645202020066e+01
5.242558396464646364e+01 6.836261047979797922e+01 5.537634154040404155e+01
5.215494791666666430e+01 6.780567392676768179e+01 5.507398200757575779e+01
5.205646306818182012e+01 6.754604640151515582e+01 5.496602746212121104e+01
5.195209911616161946e+01 6.744026199494949481e+01 5.490143623737373701e+01
5.195296717171716949e+01 6.741019570707071296e+01 5.486347853535353636e+01
5.201033775252525260e+01 6.749897411616161946e+01 5.494815340909090651e+01
5.216532512626262275e+01 6.766185290404040131e+01 5.505326704545454675e+01
5.221989425505050519e+01 6.780512152777777146e+01 5.513861268939393767e+01
5.226909722222222143e+01 6.788178661616161946e+01 5.518197601010101039e+01
5.228318339646464352e+01 6.790849905303029743e+01 5.520632102272727337e+01
5.238486426767676818e+01 6.803653724747475451e+01 5.530610795454545325e+01
5.245170454545454675e+01 6.813083964646465063e+01 5.535432449494949481e+01
5.254865056818182012e+01 6.828128945707071296e+01 5.545127051767676818e+01
5.258562184343434609e+01 6.842053345959595845e+01 5.553685290404040131e+01
5.273583491161615910e+01 6.862740688131313505e+01 5.567949021464646364e+01
5.285996685606060908e+01 6.881419665404040131e+01 5.580093907828283051e+01
5.291934974747474740e+01 6.891587752525252597e+01 5.586142676767676818e+01
5.299897411616161946e+01 6.911513573232323893e+01 5.597230113636363313e+01
5.265968276515151558e+01 6.888679766414141170e+01 5.578357796717171624e+01
5.272932449494949481e+01 6.902698863636364024e+01 5.588604797979797922e+01
5.285499526515151558e+01 6.916765309343433898e+01 5.598267834595959869e+01
5.295643939393939092e+01 6.930460858585858830e+01 5.606360479797979934e+01
5.299810606060606233e+01 6.948405934343433898e+01 5.618560606060606233e+01
5.307784880050505194e+01 6.964413667929292728e+01 5.626187657828283051e+01
5.320817550505050519e+01 6.978125000000000000e+01 5.636679292929292728e+01
5.322143308080808310e+01 6.990940656565656752e+01 5.642645202020202078e+01
5.307922979797979934e+01 6.970091540404040131e+01 5.625015782828283051e+01
5.273551925505050519e+01 6.907185132575757791e+01 5.587156723484848442e+01
5.231029040404040131e+01 6.832196969696970257e+01 5.545643939393939092e+01
5.209907670454545325e+01 6.788884943181818699e+01 5.523875473484848442e+01
5.201041666666666430e+01 6.771638257575757791e+01 5.512689393939393767e+01
5.198832070707070585e+01 6.767329545454545325e+01 5.512421085858586167e+01
5.199112215909090651e+01 6.769408933080808310e+01 5.514011205808080973e+01
5.206198705808080973e+01 6.781072443181818699e+01 5.522170928030303116e+01
5.224230587121212466e+01 6.799704071969696884e+01 5.537409248737373701e+01
5.224550189393939092e+01 6.805626578282827666e+01 5.539464962121212466e+01
5.228247316919191690e+01 6.814563604797979224e+01 5.545797821969696884e+01
5.232066761363636687e+01 6.823070549242424931e+01 5.551353377525252597e+01
5.240534248737373701e+01 6.831979955808080263e+01 5.557753314393939092e+01
5.252406881313131493e+01 6.848208648989898961e+01 5.569041982323232531e+01
5.262409248737373701e+01 6.863435132575757791e+01 5.577371369949494806e+01
5.269799558080808310e+01 6.878464330808080263e+01 5.587255366161615910e+01
5.279711174242424221e+01 6.893584280303029743e+01 5.597088068181817988e+01
5.290546085858586167e+01 6.909043560606060908e+01 5.606534090909090651e+01
5.296034564393939092e+01 6.926369160353534937e+01 5.618114741161615910e+01
5.302687026515151558e+01 6.940171243686869218e+01 5.623788667929292728e+01
5.315542140151514872e+01 6.957350852272726627e+01 5.634260574494949481e+01
5.322896938131312794e+01 6.969045928030303116e+01 5.641599589646464352e+01
5.327529198232323182e+01 6.983763415404040131e+01 5.650082859848485128e+01
5.335531092171716949e+01 7.000493213383838054e+01 5.657327178030303116e+01
5.343067392676767469e+01 7.009181660353534937e+01 5.663742897727272663e+01
5.351546717171716949e+01 7.027825126262625588e+01 5.675994318181817988e+01
5.360314078282828376e+01 7.041169507575757791e+01 5.684682765151514872e+01
5.364737215909090651e+01 7.051448074494949481e+01 5.688016887626262275e+01
5.347956123737373701e+01 7.022798295454545325e+01 5.669168244949494806e+01
5.295497948232323182e+01 6.941441761363635976e+01 5.616410195707070585e+01
5.248555871212121104e+01 6.861197916666667140e+01 5.574597537878787534e+01
5.226953125000000000e+01 6.805677872474747403e+01 5.549538352272727337e+01
5.214977904040404155e+01 6.778693181818181301e+01 5.537310606060606233e+01
5.198725536616161946e+01 6.765376420454545325e+01 5.531601167929292728e+01
5.202856691919191690e+01 6.765435606060606233e+01 5.529971590909090651e+01
5.211868686868687206e+01 6.770880681818181301e+01 5.536884469696969546e+01
5.220501893939393767e+01 6.781518308080808310e+01 5.542266414141413833e+01
5.226980744949494806e+01 6.795778093434343248e+01 5.552990845959595845e+01
5.228823390151514872e+01 6.797715435606060908e+01 5.555890940656565391e+01
5.234883996212121104e+01 6.804123263888888573e+01 5.562409248737373701e+01
5.236150568181817988e+01 6.811750315656566102e+01 5.567416351010101039e+01
5.242069128787878896e+01 6.823682133838383379e+01 5.574629103535353636e+01
5.258542455808080973e+01 6.842412405303029743e+01 5.588450915404040131e+01
5.258672664141413833e+01 6.852107007575757791e+01 5.591548295454545325e+01
5.271764520202020066e+01 6.869696969696970257e+01 5.603409090909090651e+01
5.275532670454545325e+01 6.880409564393939092e+01 5.610018150252525260e+01
5.286576704545454675e+01 6.898066603535353636e+01 5.620888573232323182e+01
5.297139362373737725e+01 6.911107165404040131e+01 5.626811079545454675e+01
5.305693655303030454e+01 6.926874210858585457e+01 5.638064236111111427e+01
5.312022569444444287e+01 6.941378630050505194e+01 5.646081912878787534e+01
5.317712279040404155e+01 6.955449021464646364e+01 5.654296875000000000e+01
5.327702809343434609e+01 6.970142834595959869e+01 5.661556976010101039e+01
5.333013731060606233e+01 6.979620422979797922e+01 5.668872316919191690e+01
5.346926294191919027e+01 6.997967960858585457e+01 5.681380208333333570e+01
5.348555871212121104e+01 7.014070391414141170e+01 5.684635416666666430e+01
5.355275410353535648e+01 7.025777304292928704e+01 5.693753945707070585e+01
5.360045770202020066e+01 7.028085542929292728e+01 5.694341856060606233e+01
5.322904829545454675e+01 6.976992582070707272e+01 5.661730587121212466e+01
5.277418718434343248e+01 6.893406723484848442e+01 5.612330334595959869e+01
5.228578756313131493e+01 6.810965119949494806e+01 5.572265625000000000e+01
5.206660353535353636e+01 6.770233585858585457e+01 5.551357323232323182e+01
5.197798295454545325e+01 6.749045138888888573e+01 5.543331755050505194e+01
5.194633838383838054e+01 6.739488636363635976e+01 5.536474116161615910e+01
5.197415561868687206e+01 6.740423768939393767e+01 5.538640309343434609e+01
5.208428030303030454e+01 6.750441919191919737e+01 5.546906565656565391e+01
5.219969223484848442e+01 6.768059501262625588e+01 5.560325915404040131e+01
5.219866635101010388e+01 6.774427872474747403e+01 5.561691130050505194e+01
5.223066603535353636e+01 6.779947916666667140e+01 5.563817866161615910e+01
5.231415719696969546e+01 6.790743371212121815e+01 5.574029356060606233e+01
5.233471433080808310e+01 6.798701862373737015e+01 5.580062342171716949e+01
5.245604482323232531e+01 6.815396148989898961e+01 5.591769255050505194e+01
5.253448547979797922e+01 6.829000946969696884e+01 5.599708017676767469e+01
5.262314551767676818e+01 6.847415561868686495e+01 5.611383364898989612e+01
5.274005681818182012e+01 6.865404040404040131e+01 5.619349747474747403e+01
5.284185606060606233e+01 6.879292929292928704e+01 5.627146464646464352e+01
5.290289614898989612e+01 6.897265625000000000e+01 5.641220801767676818e+01
5.296709280303030454e+01 6.910298295454545325e+01 5.646614583333333570e+01
5.308960700757575779e+01 6.927568655303029743e+01 5.656987847222222143e+01
5.314583333333333570e+01 6.943544823232323893e+01 5.664772727272727337e+01
5.324017518939393767e+01 6.954557291666667140e+01 5.670482165404040131e+01
5.333652935606060908e+01 6.971736900252524549e+01 5.683842329545454675e+01
5.338758680555555713e+01 6.985254892676768179e+01 5.688821811868687206e+01
5.347849589646464352e+01 7.002047821969696884e+01 5.698401988636363313e+01
5.356380208333333570e+01 7.015123895202020776e+01 5.707516571969696884e+01
5.361422821969696884e+01 7.027915877525252597e+01 5.713884943181817988e+01
5.361067708333333570e+01 7.033416193181818699e+01 5.711099273989898961e+01
5.326889993686868507e+01 6.979651988636364024e+01 5.675532670454545325e+01
5.282709911616161946e+01 6.898697916666667140e+01 5.630121527777777857e+01
5.240861742424242209e+01 6.826231060606060908e+01 5.593418560606060908e+01
5.225086805555555713e+01 6.791137941919191690e+01 5.577028093434343248e+01
5.220568970959595845e+01 6.778618213383838054e+01 5.571910511363636687e+01
5.218726325757575779e+01 6.773161300505050519e+01 5.566248421717171624e+01
5.224794823232323182e+01 6.780934343434343248e+01 5.572664141414141170e+01
5.235752051767676818e+01 6.795458491161616621e+01 5.581853693181817988e+01
5.239468907828283051e+01 6.807934816919191690e+01 5.590210700757575779e+01
5.237188289141413833e+01 6.814240056818181301e+01 5.589697758838384090e+01
5.245576862373737725e+01 6.822202493686869218e+01 5.597234059343434609e+01
5.254588857323232531e+01 6.830014993686869218e+01 5.603673453282828376e+01
5.255898832070707272e+01 6.836517518939393767e+01 5.605898832070707272e+01
5.266461489898989612e+01 6.851941287878787534e+01 5.618276515151514872e+01
5.271081912878787534e+01 6.864453125000000000e+01 5.624554135101010388e+01
5.284659090909090651e+01 6.881123737373737015e+01 5.634343434343434609e+01
5.292593907828283051e+01 6.897975852272726627e+01 5.642562342171716949e+01
5.295059974747474740e+01 6.907717803030303116e+01 5.646196338383838054e+01
5.306321022727272663e+01 6.928101325757575069e+01 5.660172032828283051e+01
5.313959911616161946e+01 6.938565340909090651e+01 5.663123421717171624e+01
5.323086332070707272e+01 6.952915877525252597e+01 5.672975852272727337e+01
5.332161458333333570e+01 6.967909564393939092e+01 5.683613478535353636e+01
5.335381155303030454e+01 6.979131155303029743e+01 5.687511837121212466e+01
5.347991635101010388e+01 6.994487847222222854e+01 5.697344539141413833e+01
5.351132417929292728e+01 7.005835700757575069e+01 5.702095170454545325e+01
5.359588068181817988e+01 7.019957386363635976e+01 5.708751578282828376e+01
5.346523832070707272e+01 7.005188604797979224e+01 5.697975852272727337e+01
5.300505050505050519e+01 6.936221590909090651e+01 5.653866792929292728e+01
5.260037878787878896e+01 6.859595959595959869e+01 5.611821338383838054e+01
5.230673926767676818e+01 6.800102588383838054e+01 5.577296401515151558e+01
5.210890151515151558e+01 6.778140782828282340e+01 5.561237373737373701e+01
5.212152777777777857e+01 6.771417297979797922e+01 5.558585858585858830e+01
5.217901672979797922e+01 6.772383996212121815e+01 5.561651672979797922e+01
5.225844381313131493e+01 6.785787563131313505e+01 5.572340593434343248e+01
5.234876104797979934e+01 6.799585700757575069e+01 5.582571811868687206e+01
5.242116477272727337e+01 6.814386047979797922e+01 5.589543876262626299e+01
5.243047664141413833e+01 6.814796401515151558e+01 5.587997159090909349e+01
5.247541824494949481e+01 6.821121369949494806e+01 5.591354955808080973e+01
5.251964962121212466e+01 6.831494633838383379e+01 5.597182765151514872e+01
5.258585858585858830e+01 6.843529040404040131e+01 5.606092171717171624e+01
5.267226957070707272e+01 6.859588068181818699e+01 5.616674558080808310e+01
5.275145991161615910e+01 6.870584753787878185e+01 5.622447127525252597e+01
5.282702020202020066e+01 6.890309343434343248e+01 5.632717803030303116e+01
5.288277304292929415e+01 6.899072758838383379e+01 5.636478061868687206e+01
5.304257417929292728e+01 6.918241003787878185e+01 5.648496685606060908e+01
5.309955018939393767e+01 6.930614741161616621e+01 5.655188604797979934e+01
5.316276041666666430e+01 6.944716698232323893e+01 5.661209753787878896e+01
5.323571654040404155e+01 6.956021148989898961e+01 5.667716224747474740e+01
5.328519570707070585e+01 6.967219065656566102e+01 5.673626893939393767e+01
5.334363162878787534e+01 6.980796243686869218e+01 5.680606849747474740e+01
5.339417613636363313e+01 6.994547032828282340e+01 5.686687184343434609e+01
5.348638731060606233e+01 7.008424084595959869e+01 5.694835069444444287e+01
5.352497632575757791e+01 7.020505839646465063e+01 5.701897885101010388e+01
5.352379261363636687e+01 7.019882417929292728e+01 5.694961332070707272e+01
5.319061710858586167e+01 6.966899463383838054e+01 5.661817392676767469e+01
5.259568339646464352e+01 6.871721117424242209e+01 5.602592329545454675e+01
5.221373895202020066e+01 6.790281723484848442e+01 5.557926925505050519e+01
5.185381155303030454e+01 6.739958175505050519e+01 5.532477114898989612e+01
5.173887310606060908e+01 6.716674558080808310e+01 5.516043244949494806e+01
5.173121843434343248e+01 6.707417929292928704e+01 5.512989267676767469e+01
5.173784722222222143e+01 6.706928661616161946e+01 5.513052398989898961e+01
5.181755050505050519e+01 6.723121843434343248e+01 5.522048611111111427e+01
5.195146780303030454e+01 6.731415719696970257e+01 5.529805871212121104e+01
5.199143781565656752e+01 6.742972695707071296e+01 5.538537720959595845e+01
5.202781723484848442e+01 6.747825915404040131e+01 5.541086647727272663e+01
5.205500315656565391e+01 6.754616477272726627e+01 5.544436553030303116e+01
5.210657354797979934e+01 6.762930082070707272e+01 5.551913667929292728e+01
5.220801767676767469e+01 6.777414772727273373e+01 5.561221590909090651e+01
5.230235953282828376e+01 6.795703125000000000e+01 5.572044665404040131e+01
5.237140940656565391e+01 6.808810763888888573e+01 5.580717329545454675e+01
5.244219539141413833e+01 6.824506786616161946e+01 5.589453125000000000e+01
5.255666035353535648e+01 6.841051136363635976e+01 5.599447601010101039e+01
5.261679292929292728e+01 6.850962752525252597e+01 5.605192550505050519e+01
5.271429135101010388e+01 6.869172190656566102e+01 5.614389993686868507e+01
5.278645833333333570e+01 6.881455176767676107e+01 5.621843434343434609e+01
5.289425505050505194e+01 6.898042929292928704e+01 5.630350378787878896e+01
5.295134943181817988e+01 6.907350852272726627e+01 5.636848958333333570e+01
5.301053503787878896e+01 6.922170928030303116e+01 5.645292771464646364e+01
5.310519255050505194e+01 6.938328598484848442e+01 5.655658143939393767e+01
5.318023989898989612e+01 6.950236742424242209e+01 5.661221590909090651e+01
5.325118371212121104e+01 6.964386047979797922e+01 5.670399305555555713e+01
5.314492582070707272e+01 6.951250789141414543e+01 5.659173768939393767e+01
5.267672821969696884e+01 6.885081281565656752e+01 5.613711332070707272e+01
5.216954703282828376e+01 6.791133996212121815e+01 5.558526672979797922e+01
5.180413510101010388e+01 6.724195075757575069e+01 5.524794823232323182e+01
5.161789772727272663e+01 6.691240530303029743e+01 5.506360479797979934e+01
5.155543718434343248e+01 6.677039930555555713e+01 5.496216066919191690e+01
5.158723958333333570e+01 6.677410827020202078e+01 5.496823705808080973e+01
5.163809974747474740e+01 6.684296085858585457e+01 5.499984217171716949e+01
5.175090751262626299e+01 6.702300347222222854e+01 5.515463226010101039e+01
5.185905934343434609e+01 6.716556186868686495e+01 5.527888257575757791e+01
5.190143623737373701e+01 6.723839962121212466e+01 5.529300820707070585e+01
5.189591224747474740e+01 6.731084280303029743e+01 5.529269255050505194e+01
5.193031881313131493e+01 6.734067234848484418e+01 5.534019886363636687e+01
5.202292455808080973e+01 6.750414299242424931e+01 5.546579071969696884e+01
5.207563920454545325e+01 6.760089172979797922e+01 5.554486268939393767e+01
5.222064393939393767e+01 6.777904040404040131e+01 5.565751262626262275e+01
5.229509943181817988e+01 6.794014362373737015e+01 5.574127998737373701e+01
5.236051925505050519e+01 6.807753314393939092e+01 5.583431976010101039e+01
5.248697916666666430e+01 6.825434027777777146e+01 5.593300189393939092e+01
5.252738320707070585e+01 6.836229482323231821e+01 5.598871527777777857e+01
5.262140940656565391e+01 6.850950915404040131e+01 5.607990056818182012e+01
5.271977588383838054e+01 6.867258522727273373e+01 5.614859532828283051e+01
5.276961016414141170e+01 6.879265309343433898e+01 5.623836016414141170e+01
5.287492108585858830e+01 6.892432133838383379e+01 5.632599431818182012e+01
5.292589962121212466e+01 6.904158775252524549e+01 5.639875315656565391e+01
5.300082859848485128e+01 6.918548768939393767e+01 5.647747001262626299e+01
5.305208333333333570e+01 6.928772095959595845e+01 5.649715909090909349e+01
5.302051767676767469e+01 6.925268308080808310e+01 5.645643939393939092e+01
5.257792771464646364e+01 6.861770044191919737e+01 5.603105271464646364e+01
5.211300505050505194e+01 6.773011363636364024e+01 5.554513888888888573e+01
5.168726325757575779e+01 6.713060290404040131e+01 5.516422032828283051e+01
5.154411300505050519e+01 6.677769886363635976e+01 5.495714962121212466e+01
5.150907512626262275e+01 6.671583017676768179e+01 5.491674558080808310e+01
5.153302556818182012e+01 6.672557607323231821e+01 5.492112531565656752e+01
5.160014204545454675e+01 6.683451704545454675e+01 5.499155618686868507e+01
5.169724589646464352e+01 6.698480902777777146e+01 5.509592013888888573e+01
5.173875473484848442e+01 6.706893150252524549e+01 5.513963857323232531e+01
5.178649779040404155e+01 6.710767834595959869e+01 5.517917455808080973e+01
5.176448074494949481e+01 6.711422821969696884e+01 5.517625473484848442e+01
5.182761205808080973e+01 6.720592645202020776e+01 5.520024463383838054e+01
5.184714330808080973e+01 6.727154356060606233e+01 5.527596275252525260e+01
5.197036773989898961e+01 6.743943339646465063e+01 5.537314551767676818e+01
5.202308238636363313e+01 6.758589804292928704e+01 5.546815814393939092e+01
5.209816919191919027e+01 6.768639520202020776e+01 5.552288510101010388e+01
5.220734690656565391e+01 6.787054135101010388e+01 5.563443023989898961e+01
5.229470486111111427e+01 6.796910511363635976e+01 5.569969223484848442e+01
5.236407039141413833e+01 6.811738478535353636e+01 5.576400726010101039e+01
5.245367739898989612e+01 6.823950441919191690e+01 5.585819128787878896e+01
5.251250789141413833e+01 6.834410511363635976e+01 5.591670612373737725e+01
5.254142992424242209e+01 6.847703598484848442e+01 5.599092487373737725e+01
5.260168087121212466e+01 6.858463541666667140e+01 5.603697127525252597e+01
5.272668087121212466e+01 6.867680713383838054e+01 5.608889678030303116e+01
5.242313762626262275e+01 6.829308712121212466e+01 5.579261363636363313e+01
5.189512310606060908e+01 6.748619002525252597e+01 5.529600694444444287e+01
5.143323863636363313e+01 6.674289772727273373e+01 5.482354797979797922e+01
5.118931502525252597e+01 6.625891729797979224e+01 5.454174558080808310e+01
5.113663983585858830e+01 6.614011205808080263e+01 5.443114741161615910e+01
5.111572758838384090e+01 6.607153566919191690e+01 5.437535511363636687e+01
5.112440814393939092e+01 6.610183869949494806e+01 5.438892834595959869e+01
5.129730902777777857e+01 6.629525726010101039e+01 5.453184185606060908e+01
5.136122948232323182e+01 6.642041508838383379e+01 5.460917771464646364e+01
5.139871369949494806e+01 6.653397253787878185e+01 5.467917455808080973e+01
5.139989741161615910e+01 6.658566130050505194e+01 5.468509311868687206e+01
5.140340909090909349e+01 6.663620580808080263e+01 5.472411616161615910e+01
5.151242897727272663e+01 6.676542771464646364e+01 5.483345170454545325e+01
5.161947601010101039e+01 6.687673611111111427e+01 5.487736742424242209e+01
5.170576862373737725e+01 6.702852746212121815e+01 5.499806660353535648e+01
5.173441445707070585e+01 6.715707859848484418e+01 5.505875157828283051e+01
5.184532828282828376e+01 6.733775252525252597e+01 5.516540404040404155e+01
5.198181029040404155e+01 6.749380523989898961e+01 5.525611584595959869e+01
5.203606376262626299e+01 6.760882260101010388e+01 5.531021148989898961e+01
5.207828282828283051e+01 6.775094696969696884e+01 5.538589015151514872e+01
5.212677556818182012e+01 6.783700284090909349e+01 5.543201546717171624e+01
5.216970486111111427e+01 6.799246369949494806e+01 5.551219223484848442e+01
5.228661616161615910e+01 6.814330808080808310e+01 5.562547348484848442e+01
5.236509627525252597e+01 6.827623895202020776e+01 5.568880208333333570e+01
5.239030934343434609e+01 6.833491161616161946e+01 5.568671085858586167e+01
5.219326073232323182e+01 6.803732638888888573e+01 5.548271780303030454e+01
5.167341382575757791e+01 6.722786458333332860e+01 5.496318655303030454e+01
5.115084438131312794e+01 6.639011205808080263e+01 5.438080018939393767e+01
5.087772253787878896e+01 6.587188289141414543e+01 5.408858112373737725e+01
5.069416824494949481e+01 6.562346117424242209e+01 5.390597380050505194e+01
5.061079545454545325e+01 6.547758838383838054e+01 5.379229797979797922e+01
5.064101957070707272e+01 6.546835542929292728e+01 5.379221906565656752e+01
5.073330965909090651e+01 6.555985637626262985e+01 5.385515309343434609e+01
5.085582386363636687e+01 6.576838699494949481e+01 5.400197285353535648e+01
5.091560132575757791e+01 6.589871369949494806e+01 5.407705965909090651e+01
5.097194602272727337e+01 6.597983743686869218e+01 5.411683238636363313e+01
5.102016256313131493e+01 6.606419665404040131e+01 5.417499210858586167e+01
5.106514362373737725e+01 6.615021306818181301e+01 5.422597064393939092e+01
5.115845959595959869e+01 6.632544191919191690e+01 5.433128156565656752e+01
5.122648358585858830e+01 6.644665404040404155e+01 5.441666666666666430e+01
5.136998895202020066e+01 6.663656092171717660e+01 5.455890940656565391e+01
5.143584280303030454e+01 6.678511679292928704e+01 5.466737689393939092e+01
5.153393308080808310e+01 6.691761363636364024e+01 5.473690025252525260e+01
5.164472853535353636e+01 6.714078282828282340e+01 5.484864267676767469e+01
5.170636047979797922e+01 6.723697916666667140e+01 5.492605744949494806e+01
5.179691445707070585e+01 6.739950284090909349e+01 5.503476167929292728e+01
5.187823547979797922e+01 6.756541982323231821e+01 5.511687184343434609e+01
5.197316919191919027e+01 6.769839015151515582e+01 5.519886363636363313e+01
5.209161931818182012e+01 6.790838068181818699e+01 5.530942234848485128e+01
5.216441761363636687e+01 6.805125473484848442e+01 5.539784564393939092e+01
5.225473484848485128e+01 6.817219065656566102e+01 5.547711489898989612e+01
5.203574810606060908e+01 6.792842487373737015e+01 5.528132891414141170e+01
5.158692392676767469e+01 6.720213857323231821e+01 5.478594539141413833e+01
5.114796401515151558e+01 6.646993371212121815e+01 5.439386047979797922e+01
5.086604324494949481e+01 6.598662405303029743e+01 5.409852430555555713e+01
5.077391098484848442e+01 6.580705492424242209e+01 5.398997790404040131e+01
5.070348011363636687e+01 6.568817077020202078e+01 5.391086647727272663e+01
5.072415561868687206e+01 6.569858743686869218e+01 5.393722380050505194e+01
5.084331597222222143e+01 6.582800662878787534e+01 5.402734375000000000e+01
5.094223484848485128e+01 6.605571338383838054e+01 5.415546085858586167e+01
5.101747948232323182e+01 6.619503630050505194e+01 5.424080650252525260e+01
5.103235479797979934e+01 6.624558080808080263e+01 5.425852272727272663e+01
5.110574494949494806e+01 6.636837121212121815e+01 5.436268939393939092e+01
5.119207702020202078e+01 6.649005681818181301e+01 5.443292297979797922e+01
5.129955808080808310e+01 6.667660984848484418e+01 5.455460858585858830e+01
5.144109059343434609e+01 6.684734059343433898e+01 5.469693023989898961e+01
5.150355113636363313e+01 6.700812815656566102e+01 5.478716856060606233e+01
5.161407039141413833e+01 6.721807922979797922e+01 5.492215119949494806e+01
5.167767518939393767e+01 6.735191761363635976e+01 5.497802241161615910e+01
5.177754103535353636e+01 6.754332386363635976e+01 5.507962436868687206e+01
5.192187500000000000e+01 6.770722853535353636e+01 5.517029671717171624e+01
5.199621212121212466e+01 6.788904671717172334e+01 5.529845328282828376e+01
5.208451704545454675e+01 6.803574810606060908e+01 5.539070391414141170e+01
5.216607481060606233e+01 6.820300662878787534e+01 5.548015309343434609e+01
5.229214015151514872e+01 6.840482954545454675e+01 5.559296085858586167e+01
5.233234690656565391e+01 6.854210069444444287e+01 5.567388731060606233e+01
5.246452809343434609e+01 6.870742582070707272e+01 5.575982481060606233e+01
5.235278566919191690e+01 6.857248263888888573e+01 5.564634627525252597e+01
5.198330965909090651e+01 6.799893465909090651e+01 5.529833491161615910e+01
5.155598958333333570e+01 6.733929135101010388e+01 5.493888099747474740e+01
5.139500473484848442e+01 6.696665877525252597e+01 5.477537089646464352e+01
5.133416193181817988e+01 6.682279829545454675e+01 5.468943339646464352e+01
5.124988162878787534e+01 6.673141571969696884e+01 5.461099273989898961e+01
5.128843118686868507e+01 6.679363952020202078e+01 5.463265467171716949e+01
5.136781881313131493e+01 6.695004734848484418e+01 5.473398042929292728e+01
5.152166193181817988e+01 6.712014678030303116e+01 5.484962910353535648e+01
5.157930871212121104e+01 6.719973169191919737e+01 5.487602588383838054e+01
5.155701546717171624e+01 6.722841698232323893e+01 5.485973011363636687e+01
5.162002840909090651e+01 6.731826073232323893e+01 5.496251578282828376e+01
5.165041035353535648e+01 6.740609217171717660e+01 5.499337121212121104e+01
5.176621685606060908e+01 6.759165877525252597e+01 5.512085700757575779e+01
5.181328914141413833e+01 6.771527777777777146e+01 5.517787247474747403e+01
5.192372948232323182e+01 6.788821811868686495e+01 5.528957544191919027e+01
5.205267518939393767e+01 6.808834438131313505e+01 5.539547821969696884e+01
5.208629261363636687e+01 6.821413352272726627e+01 5.545466382575757791e+01
5.224372632575757791e+01 6.840960385101010388e+01 5.558447758838384090e+01
5.227059659090909349e+01 6.853101325757575069e+01 5.563328598484848442e+01
5.237981376262626299e+01 6.870273042929292728e+01 5.573540088383838054e+01
5.246046401515151558e+01 6.885613952020202078e+01 5.581463068181817988e+01
5.255614741161615910e+01 6.903705018939393767e+01 5.592246685606060908e+01
5.263952020202020066e+01 6.919870580808080263e+01 5.601325757575757791e+01
5.270162563131312794e+01 6.930089962121212466e+01 5.604332386363636687e+01
5.267850378787878896e+01 6.926704545454545325e+01 5.599589646464646364e+01
5.229312657828283051e+01 6.872747001262625588e+01 5.563103693181817988e+01
5.193300189393939092e+01 6.807331123737374412e+01 5.530074179292929415e+01
5.167065183080808310e+01 6.762866950757575069e+01 5.505512152777777857e+01
5.160610006313131493e+01 6.745300662878787534e+01 5.496421243686868507e+01
5.150185448232323182e+01 6.733676609848484418e+01 5.492151988636363313e+01
5.148216540404040131e+01 6.727635732323231821e+01 5.483712121212121104e+01
5.159272411616161946e+01 6.741232638888888573e+01 5.494436553030303116e+01
5.165597380050505194e+01 6.752481849747475451e+01 5.499435763888888573e+01
5.172754892676767469e+01 6.764468907828282340e+01 5.505172821969696884e+01
5.175398516414141170e+01 6.768469854797979224e+01 5.506995738636363313e+01
5.177450284090909349e+01 6.775808869949494806e+01 5.510136521464646364e+01
5.180342487373737725e+01 6.787381628787878185e+01 5.513880997474747403e+01
5.188596906565656752e+01 6.795241477272726627e+01 5.519468118686868507e+01
5.200666824494949481e+01 6.812756470959595845e+01 5.531774779040404155e+01
5.203188131313131493e+01 6.821922348484848442e+01 5.534169823232323182e+01
5.213340435606060908e+01 6.837062026515151558e+01 5.542854324494949481e+01
5.226444128787878896e+01 6.853448547979797922e+01 5.551223169191919027e+01
5.233641098484848442e+01 6.868410669191919737e+01 5.559493371212121104e+01
5.241942866161615910e+01 6.881557765151515582e+01 5.567384785353535648e+01
5.245198074494949481e+01 6.891931029040404155e+01 5.572249842171716949e+01
5.253192077020202078e+01 6.909615688131313505e+01 5.581774779040404155e+01
5.262081755050505194e+01 6.917653093434343248e+01 5.584588068181817988e+01
5.273619002525252597e+01 6.936040088383838054e+01 5.593458017676767469e+01
5.274479166666666430e+01 6.947111742424242209e+01 5.599842171717171624e+01
5.281897095959595845e+01 6.963020833333332860e+01 5.608491161616161946e+01
5.292025726010101039e+01 6.976921559343433898e+01 5.615952493686868507e+01
5.290632891414141170e+01 6.975165719696970257e+01 5.611087436868687206e+01
5.253523516414141170e+01 6.927971117424242209e+01 5.577481849747474740e+01
5.209883996212121104e+01 6.851219223484848442e+01 5.536998895202020066e+01
5.183388573232323182e+01 6.793426452020202078e+01 5.508988320707070585e+01
5.159323705808080973e+01 6.756324968434343248e+01 5.489484690656565391e+01
5.150544507575757791e+01 6.739212436868686495e+01 5.479521780303030454e+01
5.142692550505050519e+01 6.724147727272726627e+01 5.468907828282828376e+01
5.142925347222222143e+01 6.726037720959595845e+01 5.471239741161615910e+01
5.153669507575757791e+01 6.736371527777777146e+01 5.475260416666666430e+01
5.158400410353535648e+01 6.745442708333332860e+01 5.477150410353535648e+01
5.161426767676767469e+01 6.751309974747475451e+01 5.481944444444444287e+01
5.161746369949494806e+01 6.751629577020202078e+01 5.479896622474747403e+01
5.165751262626262275e+01 6.757165404040404155e+01 5.483585858585858830e+01
5.171421243686868507e+01 6.766354955808080263e+01 5.489824021464646364e+01
5.179470486111111427e+01 6.778365688131313505e+01 5.494306344696969546e+01
5.182358743686868507e+01 6.790565814393939092e+01 5.501598011363636687e+01
5.188715277777777857e+01 6.802825126262625588e+01 5.507118055555555713e+01
5.202714646464646364e+01 6.818355429292928704e+01 5.517676767676767469e+01
5.207228535353535648e+01 6.830445075757575069e+01 5.524779040404040131e+01
5.216433869949494806e+01 6.843848642676768179e+01 5.528539299242424221e+01
5.224277935606060908e+01 6.857705965909090651e+01 5.538340435606060908e+01
5.233826546717171624e+01 6.871421243686869218e+01 5.547178819444444287e+01
5.241197127525252597e+01 6.885830965909090651e+01 5.556111900252525260e+01
5.245939867424242209e+01 6.897044665404040131e+01 5.557666508838384090e+01
5.253014520202020066e+01 6.912831439393939092e+01 5.566934974747474740e+01
5.262428977272727337e+01 6.924850063131313505e+01 5.574108270202020066e+01
5.271358112373737725e+01 6.938514046717172334e+01 5.581616950757575779e+01
5.278081597222222143e+01 6.956853693181818699e+01 5.593501420454545325e+01
5.282678345959595845e+01 6.968016098484848442e+01 5.597230113636363313e+01
5.274309501262626299e+01 6.955969854797979224e+01 5.585546875000000000e+01
5.228491950757575779e+01 6.889350536616161946e+01 5.540928819444444287e+01
5.189717487373737725e+01 6.820036300505050519e+01 5.504300820707070585e+01
5.163940183080808310e+01 6.767396622474747403e+01 5.480685763888888573e+01
5.148674242424242209e+01 6.737910353535353636e+01 5.467266414141413833e+01
5.143994633838384090e+01 6.727327967171717660e+01 5.460882260101010388e+01
5.137140940656565391e+01 6.716023516414141170e+01 5.453365688131312794e+01
5.139851641414141170e+01 6.719349747474747403e+01 5.453345959595959869e+01
5.145134943181817988e+01 6.730141256313130782e+01 5.460175978535353636e+01
5.154403409090909349e+01 6.743134469696970257e+01 5.468276515151514872e+01
5.157942708333333570e+01 6.747857481060606233e+01 5.468233112373737725e+01
5.156530145202020066e+01 6.750690498737374412e+01 5.470592645202020066e+01
5.167913510101010388e+01 6.759011994949494806e+01 5.476609848484848442e+01
5.171026672979797922e+01 6.765613162878787534e+01 5.478618213383838054e+01
5.179596748737373701e+01 6.782232481060606233e+01 5.490171243686868507e+01
5.185471906565656752e+01 6.795115214646465063e+01 5.499297664141413833e+01
5.196026672979797922e+01 6.809079071969696884e+01 5.505149147727272663e+01
5.203105271464646364e+01 6.821729008838383379e+01 5.514642518939393767e+01
5.209236900252525260e+01 6.836841066919191690e+01 5.519322127525252597e+01
5.221275252525252597e+01 6.853125000000000000e+01 5.530697601010101039e+01
5.228918087121212466e+01 6.866402304292928704e+01 5.536288667929292728e+01
5.238707386363636687e+01 6.880595012626262985e+01 5.545857007575757791e+01
5.243667140151514872e+01 6.893446180555555713e+01 5.552395044191919027e+01
5.253046085858586167e+01 6.905445075757575069e+01 5.559548611111111427e+01
5.263660037878787534e+01 6.921772411616161946e+01 5.569215593434343248e+01
5.267463699494949481e+01 6.932788825757575069e+01 5.572372159090909349e+01
5.279253472222222143e+01 6.950797032828282340e+01 5.585740214646464352e+01
5.285262784090909349e+01 6.960767834595959869e+01 5.590108112373737725e+01
5.288450915404040131e+01 6.971942077020202078e+01 5.595095486111111427e+01
5.268102904040404155e+01 6.943750000000000000e+01 5.571732954545454675e+01
5.228890467171716949e+01 6.874518623737374412e+01 5.532615214646464352e+01
5.189259785353535648e+01 6.808499053030303116e+01 5.498839962121212466e+01
5.170379577020202078e+01 6.765392203282827666e+01 5.478776041666666430e+01
5.161186079545454675e+01 6.751874210858585457e+01 5.470971433080808310e+01
5.158068970959595845e+01 6.740171243686869218e+01 5.462535511363636687e+01
5.153922032828283051e+01 6.739386047979797922e+01 5.461845012626262275e+01
5.167779356060606233e+01 6.751459911616161946e+01 5.472498421717171624e+01
5.170249368686868507e+01 6.759785353535353636e+01 5.476089015151514872e+01
5.173366477272727337e+01 6.765522411616161946e+01 5.477391098484848442e+01
5.174135890151514872e+01 6.766276041666667140e+01 5.478839172979797922e+01
5.179210069444444287e+01 6.771271306818181301e+01 5.480851483585858830e+01
5.185357481060606233e+01 6.777655460858585457e+01 5.486572758838384090e+01
5.187578914141413833e+01 6.786142676767676107e+01 5.492203282828283051e+01
5.198173137626262275e+01 6.804107481060606233e+01 5.503081597222222143e+01
5.202189867424242209e+01 6.814216382575757791e+01 5.507903251262626299e+01
5.214236111111111427e+01 6.831833964646465063e+01 5.519839015151514872e+01
5.220797821969696884e+01 6.841915246212121815e+01 5.527237215909090651e+01
5.229016729797979934e+01 6.857425820707071296e+01 5.536766098484848442e+01
5.237949810606060908e+01 6.872198547979797922e+01 5.544483901515151558e+01
5.241047190656565391e+01 6.885333806818181301e+01 5.543272569444444287e+01
5.250883838383838054e+01 6.897174873737374412e+01 5.554150883838384090e+01
5.256656407828283051e+01 6.908108428030303116e+01 5.559781407828283051e+01
5.265731534090909349e+01 6.922391887626262985e+01 5.569945549242424221e+01
5.274696180555555713e+01 6.935475852272726627e+01 5.576511205808080973e+01
5.282181186868687206e+01 6.951578282828282340e+01 5.587847222222222143e+01
5.293410669191919027e+01 6.962476325757575069e+01 5.592053345959595845e+01
5.274376578282828376e+01 6.941216856060606233e+01 5.573508522727272663e+01
5.236253156565656752e+01 6.880287247474747403e+01 5.536426767676767469e+01
5.183637152777777857e+01 6.797289299242424931e+01 5.491528566919191690e+01
5.161193970959595845e+01 6.742996369949494806e+01 5.464318970959595845e+01
5.145667613636363313e+01 6.714480744949494806e+01 5.448129734848485128e+01
5.135613952020202078e+01 6.699013573232323893e+01 5.440317234848485128e+01
5.135128630050505194e+01 6.695561079545454675e+01 5.439247948232323182e+01
5.135973011363636687e+01 6.696279198232323893e+01 5.439839804292929415e+01
5.146504103535353636e+01 6.710566603535353636e+01 5.450670770202020066e+01
5.150094696969696884e+01 6.716319444444444287e+01 5.453866792929292728e+01
5.152533143939393767e+01 6.724613320707071296e+01 5.456368371212121104e+01
5.153136837121212466e+01 6.726574337121212466e+01 5.459607796717171624e+01
5.158783143939393767e+01 6.731731376262625588e+01 5.465348800505050519e+01
5.169807449494949481e+01 6.746827651515151558e+01 5.475441919191919027e+01
5.175935132575757791e+01 6.756932607323231821e+01 5.480385890151514872e+01
5.188502209595959869e+01 6.773240214646465063e+01 5.492700441919191690e+01
5.195198074494949481e+01 6.787843276515151558e+01 5.500627367424242209e+01
5.199199021464646364e+01 6.803081597222222854e+01 5.504596748737373701e+01
5.211126893939393767e+01 6.817660984848484418e+01 5.516319444444444287e+01
5.218884154040404155e+01 6.833735795454545325e+01 5.525276199494949481e+01
5.230618686868687206e+01 6.849116161616161946e+01 5.536631944444444287e+01
5.234738005050505194e+01 6.857102272727273373e+01 5.541840277777777857e+01
5.243023989898989612e+01 6.873058712121212466e+01 5.551799242424242209e+01
5.250138099747474740e+01 6.887306660353534937e+01 5.558408301767676818e+01
5.259970801767676818e+01 6.903973327020202078e+01 5.566362847222222143e+01
5.266694286616161946e+01 6.918241003787878185e+01 5.577205650252525260e+01
5.276712436868687206e+01 6.933025568181818699e+01 5.584524936868687206e+01
5.282035195707070585e+01 6.946697443181818699e+01 5.591915246212121104e+01
5.285996685606060908e+01 6.950359059343433898e+01 5.591536458333333570e+01
5.254111426767676818e+01 6.907220643939393767e+01 5.561434659090909349e+01
5.202560763888888573e+01 6.820821496212121815e+01 5.510310132575757791e+01
5.154273200757575779e+01 6.736722695707071296e+01 5.465778882575757791e+01
5.130630523989898961e+01 6.684828756313130782e+01 5.444156407828283051e+01
5.114997632575757791e+01 6.656474905303029743e+01 5.429391571969696884e+01
5.113553503787878896e+01 6.643193655303029743e+01 5.420908301767676818e+01
5.107978219696969546e+01 6.637539457070707272e+01 5.416911300505050519e+01
5.116279987373737725e+01 6.649155618686869218e+01 5.424708017676767469e+01
5.124530460858586167e+01 6.663813920454545325e+01 5.434505208333333570e+01
5.125931186868687206e+01 6.669223484848484418e+01 5.435116792929292728e+01
5.133692392676767469e+01 6.677600220959595845e+01 5.442514993686868507e+01
5.136383364898989612e+01 6.681806344696970257e+01 5.445032354797979934e+01
5.144132733585858830e+01 6.693012152777777146e+01 5.452213541666666430e+01
5.153760258838384090e+01 6.706348642676768179e+01 5.463435132575757791e+01
5.164646464646464352e+01 6.722032828282827666e+01 5.472143308080808310e+01
5.177225378787878896e+01 6.739914772727273373e+01 5.485037878787878896e+01
5.183360953282828376e+01 6.756088226010101039e+01 5.494456281565656752e+01
5.193919665404040131e+01 6.775011837121212466e+01 5.506214488636363313e+01
5.201420454545454675e+01 6.790246212121212466e+01 5.514425505050505194e+01
5.209367108585858830e+01 6.809351325757575069e+01 5.527785669191919027e+01
5.223836016414141170e+01 6.825477430555555713e+01 5.539792455808080973e+01
5.227687026515151558e+01 6.837172506313130782e+01 5.546642203282828376e+01
5.238873106060606233e+01 6.853977272727273373e+01 5.557118055555555713e+01
5.245979324494949481e+01 6.870916193181818699e+01 5.562788036616161946e+01
5.260819128787878896e+01 6.887097537878787534e+01 5.576712436868687206e+01
5.271681660353535648e+01 6.905883049242424931e+01 5.586517518939393767e+01
5.273271780303030454e+01 6.920904356060606233e+01 5.590601325757575779e+01
5.287113320707070585e+01 6.936560921717172334e+01 5.602154356060606233e+01
5.282461332070707272e+01 6.932335069444444287e+01 5.594298453282828376e+01
5.241950757575757791e+01 6.877035984848484418e+01 5.555697601010101039e+01
5.193536931818182012e+01 6.789149305555555713e+01 5.506557765151514872e+01
5.153184185606060908e+01 6.712937973484848442e+01 5.466489109848485128e+01
5.128981218434343248e+01 6.673836016414141170e+01 5.448914930555555713e+01
5.113348327020202078e+01 6.650437973484848442e+01 5.434528882575757791e+01
5.113944128787878896e+01 6.644341856060606233e+01 5.426696654040404155e+01
5.124147727272727337e+01 6.649889520202020776e+01 5.431613005050505194e+01
5.132638888888888573e+01 6.667266414141414543e+01 5.444034090909090651e+01
5.138924400252525260e+01 6.683289930555555713e+01 5.455527935606060908e+01
5.141765309343434609e+01 6.688624526515151558e+01 5.456490688131312794e+01
5.149976325757575779e+01 6.696440972222222854e+01 5.460519255050505194e+01
5.154032512626262275e+01 6.701712436868686495e+01 5.465143623737373701e+01
5.163064236111111427e+01 6.715557922979797922e+01 5.476163983585858830e+01
5.166966540404040131e+01 6.726515151515151558e+01 5.482591540404040131e+01
5.178152619949494806e+01 6.745150726010101039e+01 5.491820549242424221e+01
5.191994160353535648e+01 6.764405776515151558e+01 5.504841382575757791e+01
5.195829387626262275e+01 6.775879892676768179e+01 5.512780145202020066e+01
5.210949337121212466e+01 6.793777619949494806e+01 5.523417771464646364e+01
5.217357165404040131e+01 6.807145675505050519e+01 5.531545928030303116e+01
5.225848327020202078e+01 6.824459438131313505e+01 5.540068655303030454e+01
5.238849431818182012e+01 6.844057765151515582e+01 5.551649305555555713e+01
5.240163352272727337e+01 6.853705018939393767e+01 5.557019412878787534e+01
5.253128945707070585e+01 6.871294981060606233e+01 5.566449652777777857e+01
5.261083491161615910e+01 6.883226799242424931e+01 5.574404198232323182e+01
5.265601325757575779e+01 6.903148674242424931e+01 5.584777462121212466e+01
5.278590593434343248e+01 6.916958648989898961e+01 5.595462436868687206e+01
5.277434501262626299e+01 6.921752683080808310e+01 5.592270359848485128e+01
5.250299873737373701e+01 6.884375000000000000e+01 5.564457070707070585e+01
5.199455492424242209e+01 6.799376578282827666e+01 5.507015467171716949e+01
5.161403093434343248e+01 6.729379734848484418e+01 5.472466856060606233e+01
5.139303188131312794e+01 6.685010258838383379e+01 5.450114425505050519e+01
5.132737531565656752e+01 6.673930713383838054e+01 5.442443970959595845e+01
5.135033933080808310e+01 6.670671559343433898e+01 5.441362847222222143e+01
5.135976957070707272e+01 6.674755366161616621e+01 5.445572916666666430e+01
5.152635732323232531e+01 6.695754419191919737e+01 5.462484217171716949e+01
5.159651199494949481e+01 6.707899305555555713e+01 5.465743371212121104e+01
5.162511837121212466e+01 6.717088857323231821e+01 5.471886837121212466e+01
5.168615845959595845e+01 6.721709280303029743e+01 5.473761047979797922e+01
5.172557607323232531e+01 6.729060132575757791e+01 5.480022885101010388e+01
5.180022885101010388e+01 6.742538667929292728e+01 5.487993213383838054e+01
5.184288194444444287e+01 6.752817234848484418e+01 5.494752209595959869e+01
5.195178345959595845e+01 6.771172664141414543e+01 5.506021148989898961e+01
5.205792297979797922e+01 6.785842803030303116e+01 5.512989267676767469e+01
5.211553030303030454e+01 6.800441919191919737e+01 5.521985479797979934e+01
5.224897411616161946e+01 6.819767992424242209e+01 5.534240845959595845e+01
5.232930871212121104e+01 6.833451704545454675e+01 5.543899936868687206e+01
5.243434343434343248e+01 6.849384469696970257e+01 5.553693181818182012e+01
5.247877209595959869e+01 6.859809027777777146e+01 5.558720012626262275e+01
5.261612215909090651e+01 6.879257417929292728e+01 5.571239741161615910e+01
5.266378630050505194e+01 6.891205018939393767e+01 5.578278882575757791e+01
5.276175820707070585e+01 6.905058396464646364e+01 5.584840593434343248e+01
5.284461805555555713e+01 6.923050820707071296e+01 5.595351957070707272e+01
5.283455650252525260e+01 6.921776357323231821e+01 5.592672821969696884e+01
5.246152935606060908e+01 6.878539299242424931e+01 5.555196496212121104e+01
5.196239741161615910e+01 6.789026988636364024e+01 5.501716382575757791e+01
5.151416508838384090e+01 6.708739741161616621e+01 5.455220170454545325e+01
5.121602746212121104e+01 6.662780145202020776e+01 5.430283301767676818e+01
5.110243055555555713e+01 6.638431186868686495e+01 5.416019570707070585e+01
5.109386837121212466e+01 6.631893150252524549e+01 5.414484690656565391e+01
5.111959438131312794e+01 6.629920296717172334e+01 5.409907670454545325e+01
5.123382260101010388e+01 6.647719381313130782e+01 5.424329229797979934e+01
5.131652462121212466e+01 6.662302714646465063e+01 5.432441603535353636e+01
5.134173768939393767e+01 6.674609375000000000e+01 5.438103693181817988e+01
5.142700441919191690e+01 6.680642361111111427e+01 5.444941603535353636e+01
5.146705334595959869e+01 6.685973011363635976e+01 5.446421243686868507e+01
5.155251736111111427e+01 6.701763731060606233e+01 5.456861584595959869e+01
5.161000631313131493e+01 6.710637626262625588e+01 5.462657828282828376e+01
5.173338857323232531e+01 6.730961963383838054e+01 5.477663352272727337e+01
5.180109690656565391e+01 6.743682922979797922e+01 5.485728377525252597e+01
5.191477272727272663e+01 6.762831439393939092e+01 5.496938131313131493e+01
5.199293718434343248e+01 6.779975536616161946e+01 5.506459122474747403e+01
5.210606060606060908e+01 6.794349747474747403e+01 5.514709595959595845e+01
5.217171717171716949e+01 6.810022095959595845e+01 5.526941287878787534e+01
5.228472222222222143e+01 6.822964015151515582e+01 5.533128156565656752e+01
5.237346117424242209e+01 6.840155460858585457e+01 5.546200284090909349e+01
5.243390940656565391e+01 6.853144728535353636e+01 5.553933869949494806e+01
5.250457702020202078e+01 6.867108585858585457e+01 5.560321969696969546e+01
5.263170770202020066e+01 6.887302714646465063e+01 5.572782512626262275e+01
5.268280460858586167e+01 6.898362531565656752e+01 5.576219223484848442e+01
5.261896306818182012e+01 6.894345801767676107e+01 5.571429135101010388e+01
5.221425189393939092e+01 6.829821654040404155e+01 5.528053977272727337e+01
5.166074810606060908e+01 6.743031881313130782e+01 5.477422664141413833e+01
5.126590119949494806e+01 6.670687342171717660e+01 5.434276357323232531e+01
5.110369318181817988e+01 6.635321969696970257e+01 5.418576388888888573e+01
5.103294665404040131e+01 6.621981534090909349e+01 5.410112847222222143e+01
5.092913510101010388e+01 6.611521464646465063e+01 5.403645833333333570e+01
5.097750946969696884e+01 6.618079229797979224e+01 5.406762941919191690e+01
5.113399621212121104e+01 6.632891414141414543e+01 5.419397095959595845e+01
5.124408143939393767e+01 6.651207386363635976e+01 5.433893623737373701e+01
5.130326704545454675e+01 6.662018623737374412e+01 5.439970012626262275e+01
5.129383680555555713e+01 6.670576862373737015e+01 5.438001104797979934e+01
5.141197127525252597e+01 6.683021622474747403e+01 5.450366950757575779e+01
5.150051294191919027e+01 6.695284880050505194e+01 5.458211016414141170e+01
5.157374526515151558e+01 6.711651672979797922e+01 5.471910511363636687e+01
5.169187973484848442e+01 6.729399463383838054e+01 5.480898832070707272e+01
5.184236900252525260e+01 6.750067077020202078e+01 5.495032354797979934e+01
5.189603061868687206e+01 6.766497001262625588e+01 5.503807607323232531e+01
5.198776830808080973e+01 6.778464330808080263e+01 5.513407512626262275e+01
5.213226010101010388e+01 6.801578282828282340e+01 5.527414772727272663e+01
5.219590435606060908e+01 6.814445233585858830e+01 5.531885258838384090e+01
5.234378945707070585e+01 6.832279829545454675e+01 5.543517203282828376e+01
5.235969065656565391e+01 6.847190656565656752e+01 5.552367424242424221e+01
5.252316130050505194e+01 6.867972695707071296e+01 5.563963857323232531e+01
5.258893623737373701e+01 6.885755997474747403e+01 5.576744002525252597e+01
5.271342329545454675e+01 6.900887784090909349e+01 5.585104955808080973e+01
5.281017203282828376e+01 6.926945233585858830e+01 5.599293718434343248e+01
5.284118529040404155e+01 6.932256155303029743e+01 5.599191130050505194e+01
5.261261047979797922e+01 6.900134154040404155e+01 5.575528724747474740e+01
5.216564078282828376e+01 6.827296401515151558e+01 5.528164457070707272e+01
5.171070075757575779e+01 6.752683080808080263e+01 5.485274621212121104e+01
5.150560290404040131e+01 6.713218118686869218e+01 5.463959911616161946e+01
5.138644255050505194e+01 6.693205492424242209e+01 5.452880366161615910e+01
5.142005997474747403e+01 6.688738952020202078e+01 5.452454229797979934e+01
5.140522411616161946e+01 6.690585542929292728e+01 5.451507260101010388e+01
5.154087752525252597e+01 6.708001893939393767e+01 5.462815656565656752e+01
5.160783617424242209e+01 6.723394097222222854e+01 5.472383996212121104e+01
5.169511521464646364e+01 6.733842329545454675e+01 5.474341066919191690e+01
5.174423926767676818e+01 6.744326073232323893e+01 5.482346906565656752e+01
5.176321811868687206e+01 6.749033301767676107e+01 5.484023832070707272e+01
5.183392518939393767e+01 6.764910827020202078e+01 5.495734690656565391e+01
5.196800031565656752e+01 6.778397253787878185e+01 5.505086016414141170e+01
5.200986426767676818e+01 6.797403724747475451e+01 5.513076073232323182e+01
5.211320233585858830e+01 6.814145359848484418e+01 5.526692708333333570e+01
5.220588699494949481e+01 6.825828598484848442e+01 5.531305239898989612e+01
5.232295612373737725e+01 6.849009627525252597e+01 5.545458491161615910e+01
5.243702651515151558e+01 6.862957702020202078e+01 5.553409090909090651e+01
5.253570864898989612e+01 6.879865056818181301e+01 5.563182607323232531e+01
5.265711805555555713e+01 6.894294507575757791e+01 5.574250315656565391e+01
5.271851325757575779e+01 6.910329861111111427e+01 5.581620896464646364e+01
5.280630523989898961e+01 6.926369160353534937e+01 5.590479008838384090e+01
5.288612689393939092e+01 6.940617108585858830e+01 5.596251578282828376e+01
5.300682607323232531e+01 6.961336016414141170e+01 5.611699021464646364e+01
5.305247790404040131e+01 6.974297664141414543e+01 5.617305871212121104e+01
5.307279829545454675e+01 6.982122001262625588e+01 5.617601799242424221e+01
5.286493844696969546e+01 6.954217960858585457e+01 5.594053819444444287e+01
5.238040561868687206e+01 6.881238162878787534e+01 5.547557607323232531e+01
5.205902777777777857e+01 6.819523358585858830e+01 5.512847222222222143e+01
5.184422348484848442e+01 6.781044823232323893e+01 5.490546085858586167e+01
5.179277146464646364e+01 6.772174873737374412e+01 5.486016414141413833e+01
5.181628787878787534e+01 6.767613636363635976e+01 5.483175505050505194e+01
5.182694128787878896e+01 6.772435290404040131e+01 5.488170770202020066e+01
5.196851325757575779e+01 6.789070391414141170e+01 5.499629103535353636e+01
5.203630050505050519e+01 6.803330176767676107e+01 5.506423611111111427e+01
5.209505208333333570e+01 6.811825284090909349e+01 5.510373263888888573e+01
5.209134311868687206e+01 6.815210700757575069e+01 5.514468907828283051e+01
5.216216856060606233e+01 6.823098169191919737e+01 5.519404987373737725e+01
5.220655776515151558e+01 6.834039614898989612e+01 5.524980271464646364e+01
5.231107954545454675e+01 6.847427398989898961e+01 5.536568813131312794e+01
5.243757891414141170e+01 6.864528093434343248e+01 5.547309027777777857e+01
5.249104324494949481e+01 6.874088541666667140e+01 5.548978061868687206e+01
5.254431029040404155e+01 6.892151988636364024e+01 5.558866003787878896e+01
5.268730271464646364e+01 6.909860321969696884e+01 5.570229640151514872e+01
5.272009154040404155e+01 6.925149936868686495e+01 5.577817234848485128e+01
5.289461016414141170e+01 6.940565814393939092e+01 5.591323390151514872e+01
5.295273042929292728e+01 6.954285037878787534e+01 5.597451073232323182e+01
5.301069286616161946e+01 6.970119160353534937e+01 5.607761205808080973e+01
5.309449968434343248e+01 6.984055397727273373e+01 5.615037089646464352e+01
5.319385258838384090e+01 7.000366950757575069e+01 5.625682607323232531e+01
5.323437500000000000e+01 7.011111111111111427e+01 5.628724747474747403e+01
5.312334280303030454e+01 6.995099431818181301e+01 5.617337436868687206e+01
5.272380050505050519e+01 6.934390782828282340e+01 5.572648358585858830e+01
5.223212594696969546e+01 6.851811079545454675e+01 5.525643150252525260e+01
5.194760101010101039e+01 6.799100378787878185e+01 5.495643939393939092e+01
5.177016256313131493e+01 6.767751736111111427e+01 5.479525726010101039e+01
5.173883364898989612e+01 6.757279829545454675e+01 5.473536142676767469e+01
5.176538825757575779e+01 6.752911931818181301e+01 5.473382260101010388e+01
5.178894412878787534e+01 6.756972064393939092e+01 5.477347695707070585e+01
5.190660511363636687e+01 6.772336647727273373e+01 5.487645991161615910e+01
5.189528093434343248e+01 6.779395517676768179e+01 5.490648674242424221e+01
5.191808712121212466e+01 6.786095328282827666e+01 5.495533459595959869e+01
5.194120896464646364e+01 6.789749053030303116e+01 5.495762310606060908e+01
5.201148200757575779e+01 6.799648832070707272e+01 5.503894412878787534e+01
5.209702493686868507e+01 6.810270675505050519e+01 5.509734059343434609e+01
5.221468592171716949e+01 6.826108743686869218e+01 5.523772885101010388e+01
5.226045612373737725e+01 6.843343592171717660e+01 5.532406092171716949e+01
5.232942708333333570e+01 6.854517834595959869e+01 5.540060763888888573e+01
5.246255523989898961e+01 6.871839488636364024e+01 5.549885574494949481e+01
5.251925505050505194e+01 6.884043560606060908e+01 5.556013257575757791e+01
5.262847222222222143e+01 6.901972853535353636e+01 5.567061237373737725e+01
5.269764046717171624e+01 6.914255839646465063e+01 5.572952178030303116e+01
5.277118844696969546e+01 6.927560763888888573e+01 5.582705965909090651e+01
5.287105429292929415e+01 6.941130050505050519e+01 5.593750000000000000e+01
5.294266887626262275e+01 6.953310448232323893e+01 5.600580018939393767e+01
5.297458964646464352e+01 6.972174873737374412e+01 5.605744949494949481e+01
5.307855902777777857e+01 6.982287720959595845e+01 5.614516256313131493e+01
5.310412720959595845e+01 6.994487847222222854e+01 5.620024463383838054e+01
5.293276515151514872e+01 6.966256313131313505e+01 5.597506313131312794e+01
5.243162089646464352e+01 6.884686710858585457e+01 5.543872316919191690e+01
5.189236111111111427e+01 6.793828914141414543e+01 5.492266414141413833e+01
5.153630050505050519e+01 6.731044823232323893e+01 5.458601641414141170e+01
5.138253630050505194e+01 6.699775094696970257e+01 5.441883680555555713e+01
5.129715119949494806e+01 6.676306029040404155e+01 5.431577493686868507e+01
5.125434027777777857e+01 6.668947285353534937e+01 5.430042613636363313e+01
5.130981691919191690e+01 6.677035984848484418e+01 5.436537247474747403e+01
5.139725378787878896e+01 6.690119949494949481e+01 5.445375631313131493e+01
5.150426136363636687e+01 6.701073232323231821e+01 5.454087752525252597e+01
5.150067077020202078e+01 6.705180713383838054e+01 5.456459122474747403e+01
5.157110164141413833e+01 6.713154987373737015e+01 5.460961174242424221e+01
5.157181186868687206e+01 6.720391414141414543e+01 5.466177398989898961e+01
5.172415561868687206e+01 6.735247001262625588e+01 5.479107481060606233e+01
5.180610795454545325e+01 6.752438446969696884e+01 5.491737689393939092e+01
5.187705176767676818e+01 6.763147095959595845e+01 5.497995580808080973e+01
5.201207386363636687e+01 6.785093118686869218e+01 5.512949810606060908e+01
5.212129103535353636e+01 6.802927714646465063e+01 5.525039457070707272e+01
5.218169981060606233e+01 6.815755208333332860e+01 5.533416193181817988e+01
5.226290246212121104e+01 6.833802872474747403e+01 5.545308554292929415e+01
5.233558238636363313e+01 6.847084122474747403e+01 5.554170612373737725e+01
5.245837279040404155e+01 6.863703440656566102e+01 5.563245738636363313e+01
5.253373579545454675e+01 6.877710700757575069e+01 5.574222695707070585e+01
5.267207228535353636e+01 6.895142834595959869e+01 5.584552556818182012e+01
5.276298137626262275e+01 6.914019097222222854e+01 5.595774147727272663e+01
5.284438131313131493e+01 6.928661616161616621e+01 5.604340277777777857e+01
5.292641256313131493e+01 6.945750473484848442e+01 5.615289614898989612e+01
5.282725694444444287e+01 6.935361426767676107e+01 5.605326704545454675e+01
5.240194917929292728e+01 6.867404513888888573e+01 5.558755523989898961e+01
5.188679766414141170e+01 6.783250473484848442e+01 5.512669665404040131e+01
5.154880839646464352e+01 6.721942077020202078e+01 5.482784880050505194e+01
5.145265151515151558e+01 6.698926767676768179e+01 5.469270833333333570e+01
5.136845012626262275e+01 6.683325441919191690e+01 5.463012941919191690e+01
5.135487689393939092e+01 6.682662563131313505e+01 5.462839330808080973e+01
5.144700915404040131e+01 6.691986268939393767e+01 5.472904829545454675e+01
5.158937026515151558e+01 6.709047506313130782e+01 5.484079071969696884e+01
5.166867897727272663e+01 6.726195549242424931e+01 5.493098958333333570e+01
5.167077020202020066e+01 6.732181186868686495e+01 5.499558080808080973e+01
5.171835542929292728e+01 6.739149305555555713e+01 5.503164457070707272e+01
5.174865845959595845e+01 6.746788194444444287e+01 5.508357007575757791e+01
5.190072601010101039e+01 6.763746843434343248e+01 5.520438762626262275e+01
5.198701862373737725e+01 6.781246054292928704e+01 5.531182922979797922e+01
5.206526199494949481e+01 6.796930239898989612e+01 5.542416351010101039e+01
5.220975378787878896e+01 6.816445707070707272e+01 5.554087752525252597e+01
5.226633522727272663e+01 6.831715593434343248e+01 5.563170770202020066e+01
5.238715277777777857e+01 6.850773358585858830e+01 5.575773358585858830e+01
5.245857007575757791e+01 6.866201073232323893e+01 5.584382891414141170e+01
5.261572758838384090e+01 6.884363162878787534e+01 5.593627683080808310e+01
5.269756155303030454e+01 6.902268781565656752e+01 5.604257417929292728e+01
5.277994791666666430e+01 6.915194917929292728e+01 5.611485953282828376e+01
5.287843276515151558e+01 6.935570549242424931e+01 5.624554135101010388e+01
5.298153409090909349e+01 6.949889520202020776e+01 5.632275883838384090e+01
5.308080808080808310e+01 6.969649621212121815e+01 5.641208964646464352e+01
5.296034564393939092e+01 6.958534564393939092e+01 5.630835700757575779e+01
5.260898042929292728e+01 6.903511679292928704e+01 5.596267361111111427e+01
5.222380050505050519e+01 6.838304924242424931e+01 5.557891414141413833e+01
5.193990688131312794e+01 6.788703440656566102e+01 5.532216698232323182e+01
5.186383364898989612e+01 6.774782986111111427e+01 5.523630839646464352e+01
5.184690656565656752e+01 6.770533459595959869e+01 5.518560606060606233e+01
5.187200126262626299e+01 6.774305555555555713e+01 5.518244949494949481e+01
5.195600536616161946e+01 6.788514046717172334e+01 5.528570864898989612e+01
5.208479324494949481e+01 6.806853693181818699e+01 5.542649147727272663e+01
5.218102904040404155e+01 6.821953914141414543e+01 5.549842171717171624e+01
5.218623737373737725e+01 6.826688762626262985e+01 5.551925505050505194e+01
5.224952651515151558e+01 6.835969065656566102e+01 5.557733585858586167e+01
5.232784880050505194e+01 6.848267834595959869e+01 5.565486900252525260e+01
5.238888888888888573e+01 6.860069444444444287e+01 5.572964015151514872e+01
5.251325757575757791e+01 6.880760732323231821e+01 5.584311868686868507e+01
5.260827020202020066e+01 6.895959595959595845e+01 5.593371212121212466e+01
5.274005681818182012e+01 6.915009469696970257e+01 5.603551136363636687e+01
5.279979482323232531e+01 6.931841856060606233e+01 5.609951073232323182e+01
5.290423768939393767e+01 6.944464172979797922e+01 5.617396622474747403e+01
5.295407196969696884e+01 6.964251893939393767e+01 5.629182449494949481e+01
5.301984690656565391e+01 6.975106534090909349e+01 5.633897569444444287e+01
5.315325126262626299e+01 6.993544823232323893e+01 5.643986742424242209e+01
5.324723800505050519e+01 7.010456123737374412e+01 5.652264835858586167e+01
5.332567866161615910e+01 7.024834280303029743e+01 5.662192234848485128e+01
5.344996843434343248e+01 7.046006944444444287e+01 5.673895202020202078e+01
5.343947285353535648e+01 7.049313446969696884e+01 5.670067866161615910e+01
5.315932765151514872e+01 7.017889835858585457e+01 5.644846906565656752e+01
5.271559343434343248e+01 6.945580808080808310e+01 5.598184974747474740e+01
5.240707859848485128e+01 6.880875157828282340e+01 5.561004577020202078e+01
5.222257733585858830e+01 6.848094223484848442e+01 5.542601799242424221e+01
5.209469696969696884e+01 6.826120580808080263e+01 5.530902777777777857e+01
5.207500789141413833e+01 6.819353693181818699e+01 5.524404198232323182e+01
5.207583648989898961e+01 6.818647411616161946e+01 5.521993371212121104e+01
5.216078756313131493e+01 6.830741003787878185e+01 5.533013731060606233e+01
5.223425662878787534e+01 6.844337910353534937e+01 5.539082228535353636e+01
5.229920296717171624e+01 6.856214488636364024e+01 5.545340119949494806e+01
5.233570075757575779e+01 6.859280303030303116e+01 5.545864898989898961e+01
5.231640625000000000e+01 6.865100220959595845e+01 5.546192392676767469e+01
5.241982323232323182e+01 6.877998737373737015e+01 5.554371843434343248e+01
5.246602746212121104e+01 6.887685448232323893e+01 5.560396938131312794e+01
5.260953282828283051e+01 6.906044823232323893e+01 5.575000000000000000e+01
5.268836805555555713e+01 6.917226957070707272e+01 5.580800189393939092e+01
5.275623421717171624e+01 6.931005366161616621e+01 5.585203598484848442e+01
5.283763415404040131e+01 6.948299400252524549e+01 5.595821496212121104e+01
5.289350536616161946e+01 6.959647253787878185e+01 5.601250789141413833e+01
5.292641256313131493e+01 6.972533933080808310e+01 5.608234690656565391e+01
5.300406407828283051e+01 6.985049715909090651e+01 5.612180397727272663e+01
5.312874842171716949e+01 7.001148200757575069e+01 5.622912720959595845e+01
5.317799084595959869e+01 7.014137468434343248e+01 5.625217013888888573e+01
5.327398989898989612e+01 7.032023358585858830e+01 5.636852904040404155e+01
5.334485479797979934e+01 7.045328282828282340e+01 5.644760101010101039e+01
5.341295770202020066e+01 7.060550820707071296e+01 5.649976325757575779e+01
5.349033301767676818e+01 7.071571180555555713e+01 5.653957544191919027e+01
5.323650568181817988e+01 7.040333017676768179e+01 5.628795770202020066e+01
5.285227272727272663e+01 6.970138888888888573e+01 5.590688131313131493e+01
5.237342171717171624e+01 6.889835858585858830e+01 5.541082702020202078e+01
5.203681344696969546e+01 6.836951546717172334e+01 5.511588541666666430e+01
5.194397095959595845e+01 6.807922979797979224e+01 5.500252525252525260e+01
5.182082544191919027e+01 6.789816130050505194e+01 5.489895044191919027e+01
5.183534564393939092e+01 6.786249210858585457e+01 5.489216382575757791e+01
5.185464015151514872e+01 6.788020833333332860e+01 5.491682449494949481e+01
5.195754419191919027e+01 6.803424873737374412e+01 5.501309974747474740e+01
5.198741319444444287e+01 6.807500789141414543e+01 5.503997001262626299e+01
5.200236742424242209e+01 6.813241792929292728e+01 5.505760732323232531e+01
5.197612847222222143e+01 6.815494791666667140e+01 5.507903251262626299e+01
5.204474431818182012e+01 6.820983270202020776e+01 5.511513573232323182e+01
5.212795928030303116e+01 6.833360953282827666e+01 5.523386205808080973e+01
5.217921401515151558e+01 6.842195391414141170e+01 5.526728219696969546e+01
5.227754103535353636e+01 6.860803345959595845e+01 5.535945391414141170e+01
5.236020359848485128e+01 6.874072758838383379e+01 5.545584753787878896e+01
5.242609690656565391e+01 6.889026988636364024e+01 5.553389362373737725e+01
5.255046559343434609e+01 6.905677872474747403e+01 5.563821811868687206e+01
5.264910827020202078e+01 6.919535195707071296e+01 5.572423453282828376e+01
5.273559816919191690e+01 6.933250473484848442e+01 5.582903251262626299e+01
5.281514362373737725e+01 6.944503630050505194e+01 5.588506155303030454e+01
5.292467645202020066e+01 6.963758680555555713e+01 5.600879892676767469e+01
5.298287563131312794e+01 6.975071022727273373e+01 5.602754103535353636e+01
5.303073705808080973e+01 6.987290877525252597e+01 5.610065498737373701e+01
5.310574494949494806e+01 7.004782196969696884e+01 5.620817550505050519e+01
5.320202020202020066e+01 7.018734217171717660e+01 5.626104797979797922e+01
5.326345486111111427e+01 7.034252683080808310e+01 5.633510890151514872e+01
5.327781723484848442e+01 7.035720486111111427e+01 5.630464804292929415e+01
5.296606691919191690e+01 6.990625000000000000e+01 5.598453282828283051e+01
5.251459911616161946e+01 6.909777462121212466e+01 5.551586174242424221e+01
5.204569128787878896e+01 6.833577967171717660e+01 5.509446022727272663e+01
5.182954545454545325e+01 6.794144570707071296e+01 5.488888888888888573e+01
5.168264678030303116e+01 6.767870107323231821e+01 5.474593592171716949e+01
5.168386994949494806e+01 6.758349116161616621e+01 5.470296717171716949e+01
5.167179608585858830e+01 6.753890467171717660e+01 5.468584280303030454e+01
5.170553188131312794e+01 6.762046243686869218e+01 5.475824652777777857e+01
5.180381944444444287e+01 6.775915404040404155e+01 5.485037878787878896e+01
5.183463541666666430e+01 6.778602430555555713e+01 5.484505208333333570e+01
5.181758996212121104e+01 6.782911142676768179e+01 5.487361900252525260e+01
5.183451704545454675e+01 6.784335542929292728e+01 5.489796401515151558e+01
5.193067392676767469e+01 6.793540877525252597e+01 5.497423453282828376e+01
5.197557607323232531e+01 6.802781723484848442e+01 5.501850536616161946e+01
5.210262784090909349e+01 6.819006470959595845e+01 5.513450915404040131e+01
5.218544823232323182e+01 6.835400883838383379e+01 5.522537878787878896e+01
5.222608901515151558e+01 6.844673295454545325e+01 5.527233270202020066e+01
5.227801452020202078e+01 6.862918244949494806e+01 5.535408775252525260e+01
5.238214172979797922e+01 6.872967960858585457e+01 5.541765309343434609e+01
5.250205176767676818e+01 6.888194444444444287e+01 5.553046085858586167e+01
5.258207070707070585e+01 6.902683080808080263e+01 5.561268939393939092e+01
5.260957228535353636e+01 6.912551294191919737e+01 5.564208491161615910e+01
5.267420296717171624e+01 6.925453756313130782e+01 5.571444917929292728e+01
5.280038667929292728e+01 6.940376420454545325e+01 5.582800662878787534e+01
5.287263257575757791e+01 6.955460858585858830e+01 5.591761363636363313e+01
5.291504892676767469e+01 6.966662720959595845e+01 5.597344539141413833e+01
5.296693497474747403e+01 6.980358270202020776e+01 5.604395517676767469e+01
5.289898989898989612e+01 6.965151515151515582e+01 5.590609217171716949e+01
5.243797348484848442e+01 6.894775883838383379e+01 5.545565025252525260e+01
5.196843434343434609e+01 6.820801767676768179e+01 5.500441919191919027e+01
5.169996843434343248e+01 6.766856060606060908e+01 5.470817550505050519e+01
5.157449494949494806e+01 6.743418560606060908e+01 5.458601641414141170e+01
5.153491950757575779e+01 6.733589804292928704e+01 5.452197758838384090e+01
5.156739267676767469e+01 6.734232954545454675e+01 5.451925505050505194e+01
5.166481218434343248e+01 6.744132733585858830e+01 5.460247001262626299e+01
5.170947758838384090e+01 6.754801925505050519e+01 5.465613162878787534e+01
5.176029829545454675e+01 6.763924400252524549e+01 5.471594854797979934e+01
5.177158301767676818e+01 6.768241003787878185e+01 5.472202493686868507e+01
5.182441603535353636e+01 6.773476957070707272e+01 5.476775568181817988e+01
5.185467960858586167e+01 6.783053188131313505e+01 5.484978693181817988e+01
5.193241003787878896e+01 6.793588226010101039e+01 5.490936710858586167e+01
5.204762468434343248e+01 6.810681029040404155e+01 5.500943023989898961e+01
5.216216856060606233e+01 6.828416982323231821e+01 5.515995896464646364e+01
5.218722380050505194e+01 6.840155460858585457e+01 5.517065183080808310e+01
5.233333333333333570e+01 6.857512626262625588e+01 5.529135101010101039e+01
5.239693813131312794e+01 6.871796085858585457e+01 5.537547348484848442e+01
5.248031092171716949e+01 6.885515309343433898e+01 5.545979324494949481e+01
5.258621369949494806e+01 6.898757102272726627e+01 5.553239425505050519e+01
5.260270675505050519e+01 6.914374210858585457e+01 5.557745422979797922e+01
5.271117424242424221e+01 6.927888257575757791e+01 5.567392676767676818e+01
5.276156092171716949e+01 6.936509627525252597e+01 5.571452809343434609e+01
5.289895044191919027e+01 6.953562973484848442e+01 5.585665246212121104e+01
5.292045454545454675e+01 6.965751262626262985e+01 5.589693813131312794e+01
5.305034722222222143e+01 6.980997474747475451e+01 5.600647095959595845e+01
5.287626262626262275e+01 6.965167297979797922e+01 5.585890151515151558e+01
5.247206439393939092e+01 6.894270833333332860e+01 5.536916035353535648e+01
5.186852904040404155e+01 6.804356060606060908e+01 5.481092171717171624e+01
5.151156092171716949e+01 6.735452178030303116e+01 5.441544349747474740e+01
5.132859848484848442e+01 6.702746212121212466e+01 5.423437500000000000e+01
5.120434816919191690e+01 6.678862847222222854e+01 5.409229008838384090e+01
5.115767045454545325e+01 6.672190656565656752e+01 5.405034722222222143e+01
5.123449337121212466e+01 6.674522569444444287e+01 5.410033933080808310e+01
5.134978693181817988e+01 6.688182607323231821e+01 5.418327809343434609e+01
5.140325126262626299e+01 6.701815025252524549e+01 5.428077651515151558e+01
5.141934974747474740e+01 6.705697601010101039e+01 5.427809343434343248e+01
5.143008207070707272e+01 6.709106691919191690e+01 5.431960227272727337e+01
5.151108743686868507e+01 6.721689551767676107e+01 5.439792455808080973e+01
5.155523989898989612e+01 6.730618686868686495e+01 5.444649621212121104e+01
5.166283933080808310e+01 6.748859690656566102e+01 5.457335069444444287e+01
5.178065814393939092e+01 6.761130839646465063e+01 5.467191445707070585e+01
5.183435921717171624e+01 6.774739583333332860e+01 5.474960542929292728e+01
5.193434343434343248e+01 6.791982323232323893e+01 5.487941919191919027e+01
5.202138573232323182e+01 6.810771780303029743e+01 5.501459911616161946e+01
5.212827493686868507e+01 6.826321811868686495e+01 5.507887468434343248e+01
5.221910511363636687e+01 6.839776672979797922e+01 5.516370738636363313e+01
5.228053977272727337e+01 6.856384154040404155e+01 5.527028093434343248e+01
5.239654356060606233e+01 6.869404987373737015e+01 5.534130366161615910e+01
5.251148200757575779e+01 6.886564867424242209e+01 5.547186710858586167e+01
5.254162720959595845e+01 6.898749210858585457e+01 5.552126736111111427e+01
5.262645991161615910e+01 6.915976167929292728e+01 5.559883996212121104e+01
5.278381470959595845e+01 6.933100536616161946e+01 5.574483112373737725e+01
5.280366161616161946e+01 6.941177398989898961e+01 5.579561237373737725e+01
5.279746685606060908e+01 6.945324337121212466e+01 5.579446811868687206e+01
5.244819286616161946e+01 6.892451862373737015e+01 5.543098958333333570e+01
5.191702178030303116e+01 6.807737531565656752e+01 5.491118213383838054e+01
5.145079703282828376e+01 6.733700284090909349e+01 5.447241950757575779e+01
5.126665088383838054e+01 6.691406250000000000e+01 5.429884785353535648e+01
5.119515467171716949e+01 6.674187184343433898e+01 5.420257260101010388e+01
5.114950284090909349e+01 6.664555713383838054e+01 5.415834122474747403e+01
5.119219539141413833e+01 6.668272569444444287e+01 5.422234059343434609e+01
5.130938289141413833e+01 6.683826546717172334e+01 5.433084753787878896e+01
5.146796085858586167e+01 6.703677398989898961e+01 5.448690025252525260e+01
5.150055239898989612e+01 6.713297032828282340e+01 5.454348169191919027e+01
5.152927714646464352e+01 6.722119633838383379e+01 5.459177714646464352e+01
5.161852904040404155e+01 6.733317550505050519e+01 5.469791666666666430e+01
5.165826231060606233e+01 6.744535195707071296e+01 5.479288983585858830e+01
5.179344223484848442e+01 6.763308869949494806e+01 5.491102430555555713e+01
5.193765782828283051e+01 6.779924242424242209e+01 5.500173611111111427e+01
5.202446338383838054e+01 6.798863636363635976e+01 5.514835858585858830e+01
5.211359690656565391e+01 6.814942392676768179e+01 5.524727746212121104e+01
5.221693497474747403e+01 6.836276830808080263e+01 5.539575441919191690e+01
5.235026041666666430e+01 6.854644097222222854e+01 5.548473011363636687e+01
5.242854324494949481e+01 6.870458491161616621e+01 5.561051925505050519e+01
5.253259154040404155e+01 6.888502209595959869e+01 5.569278724747474740e+01
5.259880050505050519e+01 6.902367424242424931e+01 5.576925505050505194e+01
5.274794823232323182e+01 6.922821969696970257e+01 5.592108585858586167e+01
5.284588068181817988e+01 6.939338699494949481e+01 5.601870265151514872e+01
5.292266414141413833e+01 6.956123737373737015e+01 5.610321969696969546e+01
5.300726010101010388e+01 6.972648358585858830e+01 5.619760101010101039e+01
5.310862531565656752e+01 6.990818339646465063e+01 5.629849273989898961e+01
5.312196180555555713e+01 7.006703756313130782e+01 5.634955018939393767e+01
5.307102272727272663e+01 6.993702651515151558e+01 5.626972853535353636e+01
5.272383996212121104e+01 6.936746369949494806e+01 5.590960385101010388e+01
5.224210858585858830e+01 6.859264520202020776e+01 5.546590909090909349e+01
5.203712910353535648e+01 6.815534248737374412e+01 5.524230587121212466e+01
5.188853377525252597e+01 6.795119160353534937e+01 5.511959438131312794e+01
5.191106376262626299e+01 6.789827967171717660e+01 5.510140467171716949e+01
5.194227430555555713e+01 6.792080965909090651e+01 5.513577178030303116e+01
5.205804135101010388e+01 6.804983428030303116e+01 5.521223958333333570e+01
5.206182922979797922e+01 6.819708806818181301e+01 5.530093907828283051e+01
5.217724116161615910e+01 6.831518308080808310e+01 5.537484217171716949e+01
5.220340119949494806e+01 6.838884943181818699e+01 5.541788983585858830e+01
5.223007417929292728e+01 6.844693023989898961e+01 5.544693023989898961e+01
5.231451231060606233e+01 6.854383680555555713e+01 5.552126736111111427e+01
5.239780618686868507e+01 6.867952967171717660e+01 5.561655618686868507e+01
5.249214804292929415e+01 6.883637152777777146e+01 5.572068339646464352e+01
5.259355271464646364e+01 6.900169665404040131e+01 5.582050978535353636e+01
5.263711332070707272e+01 6.911817392676768179e+01 5.587196180555555713e+01
5.275315656565656752e+01 6.932039141414141170e+01 5.600252525252525260e+01
5.283455650252525260e+01 6.946018781565656752e+01 5.607840119949494806e+01
5.293592171717171624e+01 6.962784090909090651e+01 5.614346590909090651e+01
5.297782512626262275e+01 6.979379734848484418e+01 5.625071022727272663e+01
5.309659090909090651e+01 6.994160353535353636e+01 5.633396464646464352e+01
5.319685132575757791e+01 7.009284248737374412e+01 5.642949021464646364e+01
5.326811079545454675e+01 7.023859690656566102e+01 5.650595801767676818e+01
5.336568813131312794e+01 7.041619318181818699e+01 5.660432449494949481e+01
5.344227430555555713e+01 7.057721748737374412e+01 5.667664930555555713e+01
5.354861111111111427e+01 7.072569444444444287e+01 5.673579545454545325e+01
5.341788983585858830e+01 7.058534564393939092e+01 5.660175978535353636e+01
5.302387152777777857e+01 6.999088541666667140e+01 5.623457228535353636e+01
5.261919981060606233e+01 6.930812026515151558e+01 5.584584122474747403e+01
5.237235637626262275e+01 6.882374526515151558e+01 5.553728693181817988e+01
5.228259154040404155e+01 6.868647411616161946e+01 5.549376578282828376e+01
5.228768150252525260e+01 6.859134311868686495e+01 5.546807922979797922e+01
5.228708964646464352e+01 6.859816919191919737e+01 5.547048611111111427e+01
5.239062500000000000e+01 6.872316919191919737e+01 5.557039141414141170e+01
5.247387941919191690e+01 6.886087436868686495e+01 5.565364583333333570e+01
5.251444128787878896e+01 6.898461174242424931e+01 5.571330492424242209e+01
5.254809816919191690e+01 6.901811079545454675e+01 5.571066130050505194e+01
5.254640151515151558e+01 6.907638888888888573e+01 5.575536616161615910e+01
5.261635890151514872e+01 6.912645991161616621e+01 5.579407354797979934e+01
5.271168718434343248e+01 6.926203440656566102e+01 5.588813920454545325e+01
5.282122001262626299e+01 6.943611900252524549e+01 5.599199021464646364e+01
5.288482481060606233e+01 6.957185132575757791e+01 5.605291193181817988e+01
5.294420770202020066e+01 6.974376578282827666e+01 5.615238320707070585e+01
5.299893465909090651e+01 6.984962910353534937e+01 5.622478693181817988e+01
5.311951546717171624e+01 7.002529198232323893e+01 5.632958491161615910e+01
5.319298453282828376e+01 7.013016887626262985e+01 5.639263731060606233e+01
5.325347222222222143e+01 7.029577020202020776e+01 5.646938131313131493e+01
5.333593750000000000e+01 7.046077967171717660e+01 5.655421401515151558e+01
5.339642518939393767e+01 7.056309185606060908e+01 5.659260574494949481e+01
5.352521306818182012e+01 7.072549715909090651e+01 5.669503630050505194e+01
5.356372316919191690e+01 7.084592013888888573e+01 5.674822443181817988e+01
5.365546085858586167e+01 7.102067550505050519e+01 5.684090909090909349e+01
5.377138573232323182e+01 7.117763573232323893e+01 5.692369002525252597e+01
5.377477904040404155e+01 7.125789141414141170e+01 5.689330808080808310e+01
5.356849747474747403e+01 7.097285353535353636e+01 5.668876262626262275e+01
5.307556029040404155e+01 7.019203756313130782e+01 5.621397569444444287e+01
5.265163352272727337e+01 6.940542140151515582e+01 5.582666508838384090e+01
5.233183396464646364e+01 6.880721275252524549e+01 5.553132891414141170e+01
5.219807449494949481e+01 6.854150883838383379e+01 5.541098484848485128e+01
5.210775726010101039e+01 6.839263731060606233e+01 5.532824337121212466e+01
5.206167140151514872e+01 6.828420928030303116e+01 5.522139362373737725e+01
5.210527146464646364e+01 6.835195707070707272e+01 5.527383207070707272e+01
5.220154671717171624e+01 6.845059974747475451e+01 5.536111111111111427e+01
5.227900094696969546e+01 6.853831281565656752e+01 5.543824968434343248e+01
5.227627840909090651e+01 6.856289457070707272e+01 5.545383522727272663e+01
5.231395991161615910e+01 6.860499526515151558e+01 5.548567708333333570e+01
5.233408301767676818e+01 6.865968276515151558e+01 5.551148200757575779e+01
5.235527146464646364e+01 6.872174873737374412e+01 5.554861111111111427e+01
5.250071022727272663e+01 6.887586805555555713e+01 5.566153724747474740e+01
5.253633996212121104e+01 6.897731218434343248e+01 5.570774147727272663e+01
5.264228219696969546e+01 6.914812184343433898e+01 5.583246527777777857e+01
5.267467645202020066e+01 6.925280145202020776e+01 5.586943655303030454e+01
5.282311395202020066e+01 6.943091066919191690e+01 5.598094223484848442e+01
5.284757733585858830e+01 6.954849273989898961e+01 5.604170612373737725e+01
5.290660511363636687e+01 6.964003314393939092e+01 5.610846748737373701e+01
5.300485321969696884e+01 6.980014993686869218e+01 5.619850852272727337e+01
5.305961963383838054e+01 6.989484690656566102e+01 5.623796559343434609e+01
5.316867897727272663e+01 7.006609059343433898e+01 5.635586332070707272e+01
5.323311237373737725e+01 7.018702651515151558e+01 5.642219065656565391e+01
5.326440183080808310e+01 7.030591066919191690e+01 5.648757102272727337e+01
5.336872632575757791e+01 7.048993844696970257e+01 5.659126420454545325e+01
5.340372474747474740e+01 7.060511363636364024e+01 5.660621843434343248e+01
5.350662878787878896e+01 7.069412878787878185e+01 5.663667929292929415e+01
5.315534248737373701e+01 7.026755839646465063e+01 5.633968592171716949e+01
5.270675505050505194e+01 6.944176136363635976e+01 5.585148358585858830e+01
5.221413352272727337e+01 6.859134311868686495e+01 5.538316761363636687e+01
5.192262468434343248e+01 6.807035195707071296e+01 5.512385574494949481e+01
5.179332386363636687e+01 6.781999684343433898e+01 5.498161300505050519e+01
5.166796875000000000e+01 6.762346117424242209e+01 5.488782354797979934e+01
5.166986268939393767e+01 6.759599905303029743e+01 5.487630208333333570e+01
5.177351641414141170e+01 6.767945075757575069e+01 5.496227904040404155e+01
5.185318023989898961e+01 6.784449968434343248e+01 5.502931660353535648e+01
5.193852588383838054e+01 6.793836805555555713e+01 5.511339962121212466e+01
5.195683396464646364e+01 6.797245896464646364e+01 5.512997159090909349e+01
5.198863636363636687e+01 6.802556818181818699e+01 5.517013888888888573e+01
5.201637468434343248e+01 6.805551609848484418e+01 5.522944286616161946e+01
5.208680555555555713e+01 6.818781565656566102e+01 5.530997474747474740e+01
5.222123579545454675e+01 6.833834438131313505e+01 5.539910827020202078e+01
5.228641887626262275e+01 6.849569917929292728e+01 5.551274463383838054e+01
5.239263731060606233e+01 6.864610953282827666e+01 5.559860321969696884e+01
5.245375631313131493e+01 6.880823863636364024e+01 5.569570707070707272e+01
5.255204387626262275e+01 6.896097695707071296e+01 5.578673453282828376e+01
5.265088383838384090e+01 6.907086489898989612e+01 5.585606060606060908e+01
5.269874526515151558e+01 6.922857481060606233e+01 5.594038036616161946e+01
5.278239425505050519e+01 6.936699021464646364e+01 5.602418718434343248e+01
5.287622316919191690e+01 6.950595801767676107e+01 5.607903251262626299e+01
5.299688289141413833e+01 6.967301925505050519e+01 5.619227430555555713e+01
5.303847064393939092e+01 6.979099589646465063e+01 5.627568655303030454e+01
5.312018623737373701e+01 6.997009154040404155e+01 5.636166351010101039e+01
5.318177872474747403e+01 7.009939236111111427e+01 5.645198074494949481e+01
5.327892203282828376e+01 7.027245107323231821e+01 5.655843592171716949e+01
5.331242108585858830e+01 7.031889204545454675e+01 5.655342487373737725e+01
5.310444286616161946e+01 6.999491003787878185e+01 5.630251736111111427e+01
5.262113320707070585e+01 6.920920138888888573e+01 5.579490214646464352e+01
5.209734059343434609e+01 6.835759943181818699e+01 5.528294665404040131e+01
5.182062815656565391e+01 6.786024305555555713e+01 5.500812815656565391e+01
5.166481218434343248e+01 6.760641571969696884e+01 5.483779198232323182e+01
5.161647727272727337e+01 6.751515151515151558e+01 5.476578282828283051e+01
5.165810448232323182e+01 6.749775094696970257e+01 5.474838226010101039e+01
5.171863162878787534e+01 6.761777935606060908e+01 5.482516571969696884e+01
5.178061868686868507e+01 6.777130681818181301e+01 5.492566287878787534e+01
5.180579229797979934e+01 6.783420138888888573e+01 5.494247159090909349e+01
5.185432449494949481e+01 6.790435606060606233e+01 5.498121843434343248e+01
5.187511837121212466e+01 6.793667140151515582e+01 5.501953125000000000e+01
5.193773674242424221e+01 6.801033775252524549e+01 5.507204861111111427e+01
5.204253472222222143e+01 6.814038825757575069e+01 5.517716224747474740e+01
5.208538510101010388e+01 6.828046085858585457e+01 5.526404671717171624e+01
5.223386205808080973e+01 6.843114741161616621e+01 5.534513099747474740e+01
5.226751893939393767e+01 6.856628787878787534e+01 5.538383838383838054e+01
5.239879261363636687e+01 6.876526988636364024e+01 5.550153882575757791e+01
5.249597537878787534e+01 6.891374684343433898e+01 5.560519255050505194e+01
5.258747632575757791e+01 6.910104955808080263e+01 5.572920612373737725e+01
5.263016887626262275e+01 6.920624210858585457e+01 5.578641887626262275e+01
5.278278882575757791e+01 6.940968276515151558e+01 5.589437342171716949e+01
5.281470959595959869e+01 6.953393308080808310e+01 5.596543560606060908e+01
5.287425031565656752e+01 6.967396622474747403e+01 5.603602430555555713e+01
5.298966224747474740e+01 6.985124684343433898e+01 5.616564078282828376e+01
5.307895359848485128e+01 6.999640940656566102e+01 5.623220486111111427e+01
5.308909406565656752e+01 7.005137310606060908e+01 5.621819760101010388e+01
5.274842171717171624e+01 6.960211489898989612e+01 5.590261994949494806e+01
5.225019728535353636e+01 6.874372632575757791e+01 5.535957228535353636e+01
5.188466698232323182e+01 6.805038667929292728e+01 5.496752683080808310e+01
5.165944602272727337e+01 6.770442708333332860e+01 5.475430082070707272e+01
5.166757417929292728e+01 6.760886205808080263e+01 5.471002998737373701e+01
5.163281250000000000e+01 6.753637941919191690e+01 5.467195391414141170e+01
5.168181818181817988e+01 6.761663510101010388e+01 5.472553661616161946e+01
5.181660353535353636e+01 6.780034722222222854e+01 5.485290404040404155e+01
5.188001104797979934e+01 6.789153251262625588e+01 5.491804766414141170e+01
5.193588226010101039e+01 6.800643150252524549e+01 5.498433554292929415e+01
5.197080176767676818e+01 6.806344696969696884e+01 5.500331439393939092e+01
5.196665877525252597e+01 6.814626736111111427e+01 5.505125473484848442e+01
5.208629261363636687e+01 6.824996054292928704e+01 5.513600852272727337e+01
5.220071811868687206e+01 6.841931029040404155e+01 5.521160827020202078e+01
5.224573863636363313e+01 6.859722222222222854e+01 5.532844065656565391e+01
5.237626262626262275e+01 6.875441919191919737e+01 5.543276515151514872e+01
5.247699652777777857e+01 6.895205965909090651e+01 5.555196496212121104e+01
5.257011521464646364e+01 6.906569602272726627e+01 5.560641571969696884e+01
5.269870580808080973e+01 6.925773358585858830e+01 5.573232323232323182e+01
5.273437500000000000e+01 6.939315025252524549e+01 5.579592803030303116e+01
5.285538983585858830e+01 6.956482796717172334e+01 5.591820549242424221e+01
5.293367266414141170e+01 6.972802241161616621e+01 5.602395044191919027e+01
5.301459911616161946e+01 6.988817866161616621e+01 5.607047032828283051e+01
5.313833648989898961e+01 7.006636679292928704e+01 5.618000315656565391e+01
5.315936710858586167e+01 7.020150726010101039e+01 5.622975852272727337e+01
5.329845328282828376e+01 7.042424242424242209e+01 5.633948863636363313e+01
5.335791508838384090e+01 7.057003630050505194e+01 5.637748579545454675e+01
5.319006470959595845e+01 7.036099273989898961e+01 5.619969223484848442e+01
5.266915246212121104e+01 6.959307922979797922e+01 5.570687342171716949e+01
5.216832386363636687e+01 6.867495265151515582e+01 5.514891098484848442e+01
5.184702493686868507e+01 6.806167140151515582e+01 5.480851483585858830e+01
5.169622001262626299e+01 6.776866319444444287e+01 5.463261521464646364e+01
5.164374210858586167e+01 6.765116003787878185e+01 5.457666508838384090e+01
5.164389993686868507e+01 6.758108428030303116e+01 5.453673453282828376e+01
5.166615372474747403e+01 6.762953756313130782e+01 5.457603377525252597e+01
5.175990372474747403e+01 6.778831281565656752e+01 5.470008680555555713e+01
5.180610795454545325e+01 6.785677083333332860e+01 5.473571654040404155e+01
5.189437342171716949e+01 6.795750473484848442e+01 5.480377998737373701e+01
5.188005050505050519e+01 6.798942550505050519e+01 5.482496843434343248e+01
5.197506313131312794e+01 6.810858585858585457e+01 5.492471590909090651e+01
5.202521306818182012e+01 6.821145044191919737e+01 5.497865372474747403e+01
5.207500789141413833e+01 6.832895359848484418e+01 5.504186395202020066e+01
5.219708806818182012e+01 6.852537089646465063e+01 5.516820549242424221e+01
5.229304766414141170e+01 6.865384311868686495e+01 5.525974589646464352e+01
5.241224747474747403e+01 6.881991792929292728e+01 5.536742424242424221e+01
5.246847380050505194e+01 6.900777304292928704e+01 5.543659248737373701e+01
5.254707228535353636e+01 6.911193970959595845e+01 5.550966698232323182e+01
5.268714488636363313e+01 6.930251736111111427e+01 5.564942392676767469e+01
5.278768150252525260e+01 6.945750473484848442e+01 5.574285827020202078e+01
5.282062815656565391e+01 6.958783143939393767e+01 5.580942234848485128e+01
5.293750000000000000e+01 6.977888257575757791e+01 5.591351010101010388e+01
5.300280145202020066e+01 6.990415877525252597e+01 5.599554135101010388e+01
5.314299242424242209e+01 7.012657828282827666e+01 5.612657828282828376e+01
5.316489109848485128e+01 7.024759311868686495e+01 5.615699968434343248e+01
5.325643150252525260e+01 7.038458806818181301e+01 5.621949968434343248e+01
5.311513573232323182e+01 7.024660669191919737e+01 5.606983901515151558e+01
5.264930555555555713e+01 6.948500631313130782e+01 5.560684974747474740e+01
5.217096748737373701e+01 6.860767834595959869e+01 5.508242582070707272e+01
5.176637468434343248e+01 6.795419034090909349e+01 5.472092013888888573e+01
5.163517992424242209e+01 6.766564078282827666e+01 5.459146148989898961e+01
5.151787405303030454e+01 6.749893465909090651e+01 5.450714172979797922e+01
5.149297664141413833e+01 6.744752209595959869e+01 5.446993371212121104e+01
5.162717013888888573e+01 6.757098327020202078e+01 5.459481534090909349e+01
5.169874526515151558e+01 6.769432607323231821e+01 5.469574652777777857e+01
5.178282828282828376e+01 6.782354797979797922e+01 5.479892676767676818e+01
5.182851957070707272e+01 6.787208017676768179e+01 5.481589330808080973e+01
5.185444286616161946e+01 6.793083175505050519e+01 5.485775726010101039e+01
5.195537405303030454e+01 6.801408617424242209e+01 5.495490056818182012e+01
5.200213068181817988e+01 6.811229482323231821e+01 5.500497159090909349e+01
5.213162878787878896e+01 6.829450757575757791e+01 5.512720959595959869e+01
5.214255839646464352e+01 6.842017834595959869e+01 5.520474273989898961e+01
5.228002683080808310e+01 6.859000157828282340e+01 5.531680082070707272e+01
5.232488952020202078e+01 6.874708017676768179e+01 5.540569760101010388e+01
5.243122632575757791e+01 6.892128314393939092e+01 5.553270991161615910e+01
5.256632733585858830e+01 6.908558238636364024e+01 5.565550031565656752e+01
5.264386047979797922e+01 6.922892992424242209e+01 5.570509785353535648e+01
5.268469854797979934e+01 6.940455334595959869e+01 5.580938289141413833e+01
5.277292455808080973e+01 6.952166193181818699e+01 5.588293087121212466e+01
5.290984059343434609e+01 6.969251104797979224e+01 5.601116635101010388e+01
5.294353693181817988e+01 6.982674400252524549e+01 5.607563920454545325e+01
5.307449494949494806e+01 6.999273989898989612e+01 5.616493055555555713e+01
5.311371527777777857e+01 7.011718750000000000e+01 5.622009154040404155e+01
5.292459753787878896e+01 6.988892834595959869e+01 5.604328440656565391e+01
5.247719381313131493e+01 6.922782512626262985e+01 5.563786300505050519e+01
5.207654671717171624e+01 6.846843434343433898e+01 5.518450126262626299e+01
5.190380366161615910e+01 6.804537563131313505e+01 5.498319128787878896e+01
5.183779198232323182e+01 6.789461016414141170e+01 5.490597380050505194e+01
5.176976799242424221e+01 6.782879577020202078e+01 5.485973011363636687e+01
5.178787878787878896e+01 6.790088383838383379e+01 5.491777146464646364e+01
5.191891571969696884e+01 6.804801925505050519e+01 5.504202178030303116e+01
5.201882102272727337e+01 6.821594854797979224e+01 5.514666193181817988e+01
5.207050978535353636e+01 6.829778251262625588e+01 5.519629892676767469e+01
5.209453914141413833e+01 6.835684974747475451e+01 5.522427398989898961e+01
5.213557449494949481e+01 6.840214646464646364e+01 5.526625631313131493e+01
5.223078440656565391e+01 6.851061395202020776e+01 5.532232481060606233e+01
5.228697127525252597e+01 6.865865688131313505e+01 5.544369476010101039e+01
5.235692866161615910e+01 6.878369633838383379e+01 5.548524305555555713e+01
5.246077967171716949e+01 6.897940340909090651e+01 5.562555239898989612e+01
5.253906250000000000e+01 6.910440340909090651e+01 5.569483901515151558e+01
5.270154671717171624e+01 6.930287247474747403e+01 5.581013257575757791e+01
5.276925505050505194e+01 6.946401515151515582e+01 5.589504419191919027e+01
5.282043087121212466e+01 6.958589804292928704e+01 5.598693970959595845e+01
5.291702178030303116e+01 6.978050031565656752e+01 5.609789299242424221e+01
5.295951704545454675e+01 6.988060290404040131e+01 5.614954229797979934e+01
5.312038352272727337e+01 7.006814236111111427e+01 5.625674715909090651e+01
5.315928819444444287e+01 7.018469854797979224e+01 5.628413036616161946e+01
5.324857954545454675e+01 7.038162878787878185e+01 5.638289141414141170e+01
5.315155460858586167e+01 7.038861268939393767e+01 5.629723011363636687e+01
5.289216382575757791e+01 6.990810448232323893e+01 5.601448074494949481e+01
5.235183869949494806e+01 6.908637152777777146e+01 5.550445864898989612e+01
5.205709438131312794e+01 6.843335700757575069e+01 5.513884943181817988e+01
5.183964646464646364e+01 6.813099747474747403e+01 5.496369949494949481e+01
5.180145202020202078e+01 6.798374368686869218e+01 5.486300505050505194e+01
5.176096906565656752e+01 6.790538194444444287e+01 5.482930871212121104e+01
5.182891414141413833e+01 6.794333964646465063e+01 5.484327651515151558e+01
5.189741161616161946e+01 6.812073863636364024e+01 5.494318181818182012e+01
5.201976799242424221e+01 6.825950915404040131e+01 5.506080334595959869e+01
5.200382733585858830e+01 6.828239425505050519e+01 5.505890940656565391e+01
5.204360006313131493e+01 6.834947127525252597e+01 5.507737531565656752e+01
5.207792771464646364e+01 6.840668402777777146e+01 5.511422821969696884e+01
5.213995422979797922e+01 6.851905776515151558e+01 5.518967013888888573e+01
5.225284090909090651e+01 6.865956439393939092e+01 5.526152146464646364e+01
5.236521464646464352e+01 6.878172348484848442e+01 5.535321969696969546e+01
5.242246685606060908e+01 6.894519412878787534e+01 5.544487847222222143e+01
5.246243686868687206e+01 6.910211489898989612e+01 5.551420454545454675e+01
5.257216698232323182e+01 6.925303819444444287e+01 5.560215435606060908e+01
5.268765782828283051e+01 6.940325126262625588e+01 5.569902146464646364e+01
5.271665877525252597e+01 6.954068023989898961e+01 5.575753630050505194e+01
5.282638888888888573e+01 6.972743055555555713e+01 5.585574494949494806e+01
5.289279513888888573e+01 6.981561710858585457e+01 5.589658301767676818e+01
5.295959595959595845e+01 6.999321338383838054e+01 5.597095959595959869e+01
5.306494633838384090e+01 7.013754734848484418e+01 5.605405618686868507e+01
5.312022569444444287e+01 7.028736584595959869e+01 5.611549084595959869e+01
5.318667140151514872e+01 7.044819286616161946e+01 5.618935448232323182e+01
5.323887310606060908e+01 7.050260416666667140e+01 5.619231376262626299e+01
5.296322601010101039e+01 7.012863005050505194e+01 5.591130050505050519e+01
5.249550189393939092e+01 6.929679608585858830e+01 5.540853851010101039e+01
5.198591382575757791e+01 6.851463857323231821e+01 5.494424715909090651e+01
5.171141098484848442e+01 6.804395517676768179e+01 5.468000315656565391e+01
5.158195233585858830e+01 6.781127683080808310e+01 5.454849273989898961e+01
5.152087279040404155e+01 6.767712279040404155e+01 5.449230587121212466e+01
5.155815972222222143e+01 6.764827967171717660e+01 5.445083648989898961e+01
5.160649463383838054e+01 6.774080650252524549e+01 5.453957544191919027e+01
5.173701862373737725e+01 6.790415877525252597e+01 5.464800347222222143e+01
5.179904513888888573e+01 6.795087594696970257e+01 5.467436079545454675e+01
5.176167929292929415e+01 6.800157828282827666e+01 5.470138888888888573e+01
5.180050505050505194e+01 6.805744949494949481e+01 5.472506313131312794e+01
5.189453125000000000e+01 6.817657039141414543e+01 5.481324968434343248e+01
5.194622001262626299e+01 6.824814551767676107e+01 5.484489425505050519e+01
5.206972064393939092e+01 6.844519412878787534e+01 5.497155145202020066e+01
5.214792455808080973e+01 6.859410511363635976e+01 5.505512152777777857e+01
5.223421717171716949e+01 6.871701388888888573e+01 5.513320707070707272e+01
5.238379892676767469e+01 6.891662720959595845e+01 5.523938604797979934e+01
5.240479008838384090e+01 6.904509943181818699e+01 5.531498579545454675e+01
5.247754892676767469e+01 6.921792140151515582e+01 5.543698705808080973e+01
5.258364898989898961e+01 6.934943181818181301e+01 5.550094696969696884e+01
5.270860953282828376e+01 6.953610321969696884e+01 5.562227746212121104e+01
5.270454545454545325e+01 6.964630681818181301e+01 5.566587752525252597e+01
5.282516571969696884e+01 6.980464804292928704e+01 5.571910511363636687e+01
5.291256313131312794e+01 7.002351641414141170e+01 5.585290404040404155e+01
5.305153093434343248e+01 7.017132260101010388e+01 5.593047664141413833e+01
5.315112058080808310e+01 7.034777462121212466e+01 5.600323547979797922e+01
5.318059501262626299e+01 7.046610637626262985e+01 5.605259627525252597e+01
5.303957544191919027e+01 7.025564236111111427e+01 5.590084438131312794e+01
5.253255208333333570e+01 6.953270991161616621e+01 5.543248895202020066e+01
5.207019412878787534e+01 6.868525094696970257e+01 5.497328756313131493e+01
5.172833806818182012e+01 6.814042771464646364e+01 5.469850852272727337e+01
5.163312815656565391e+01 6.787476325757575069e+01 5.452359532828283051e+01
5.157193023989898961e+01 6.779525726010101039e+01 5.446871054292929415e+01
5.152568655303030454e+01 6.771413352272726627e+01 5.442530776515151558e+01
5.161430713383838054e+01 6.783510890151515582e+01 5.452008364898989612e+01
5.174857954545454675e+01 6.796022727272726627e+01 5.462673611111111427e+01
5.177154356060606233e+01 6.806541982323231821e+01 5.469073547979797922e+01
5.180587121212121104e+01 6.809864267676768179e+01 5.469775883838384090e+01
5.181711647727272663e+01 6.812772253787878185e+01 5.472447127525252597e+01
5.187744633838384090e+01 6.823066603535353636e+01 5.477028093434343248e+01
5.192159880050505194e+01 6.829391571969696884e+01 5.482469223484848442e+01
5.200718118686868507e+01 6.843079229797979224e+01 5.491690340909090651e+01
5.208787089646464352e+01 6.857761205808080263e+01 5.501732165404040131e+01
5.221705334595959869e+01 6.872573390151515582e+01 5.509805082070707272e+01
5.226882102272727337e+01 6.887772253787878185e+01 5.519101167929292728e+01
5.236951546717171624e+01 6.899593592171717660e+01 5.521878945707070585e+01
5.244712752525252597e+01 6.913731060606060908e+01 5.532922979797979934e+01
5.252055713383838054e+01 6.928760258838383379e+01 5.542743844696969546e+01
5.260957228535353636e+01 6.944700915404040131e+01 5.547983743686868507e+01
5.267329545454545325e+01 6.955981691919191690e+01 5.555445075757575779e+01
5.272569444444444287e+01 6.971717171717172334e+01 5.562799873737373701e+01
5.282327178030303116e+01 6.986115056818181301e+01 5.573425662878787534e+01
5.287488162878787534e+01 7.001519097222222854e+01 5.576377051767676818e+01
5.299250315656565391e+01 7.013407512626262985e+01 5.582125946969696884e+01
5.286627998737373701e+01 6.995718907828282340e+01 5.566994160353535648e+01
5.241425978535353636e+01 6.927237215909090651e+01 5.525469539141413833e+01
5.193959122474747403e+01 6.851519097222222854e+01 5.481979955808080973e+01
5.165037089646464352e+01 6.800658933080808310e+01 5.455677872474747403e+01
5.158656881313131493e+01 6.779474431818181301e+01 5.443631628787878896e+01
5.152237215909090651e+01 6.772849589646465063e+01 5.439405776515151558e+01
5.156250000000000000e+01 6.775078914141414543e+01 5.441950757575757791e+01
5.169093276515151558e+01 6.790968276515151558e+01 5.453420928030303116e+01
5.176341540404040131e+01 6.800883838383838054e+01 5.460290404040404155e+01
5.185341698232323182e+01 6.811841066919191690e+01 5.467885890151514872e+01
5.180441130050505194e+01 6.815999842171717660e+01 5.462953756313131493e+01
5.183731849747474740e+01 6.817838541666667140e+01 5.465092329545454675e+01
5.189946338383838054e+01 6.823721590909090651e+01 5.470943813131312794e+01
5.199056976010101039e+01 6.837772253787878185e+01 5.480212279040404155e+01
5.208487215909090651e+01 6.853310448232323893e+01 5.490636837121212466e+01
5.215333017676767469e+01 6.865475063131313505e+01 5.497498421717171624e+01
5.225639204545454675e+01 6.879363952020202078e+01 5.503259154040404155e+01
5.233700284090909349e+01 6.898283617424242209e+01 5.517933238636363313e+01
5.243012152777777857e+01 6.913372001262625588e+01 5.525745738636363313e+01
5.252552872474747403e+01 6.929967645202020776e+01 5.536422821969696884e+01
5.258372790404040131e+01 6.940380366161616621e+01 5.539985795454545325e+01
5.271638257575757791e+01 6.957686237373737015e+01 5.551104797979797922e+01
5.272900883838384090e+01 6.969602272727273373e+01 5.554056186868687206e+01
5.283562184343434609e+01 6.985535037878787534e+01 5.561892361111111427e+01
5.289476799242424221e+01 7.000414299242424931e+01 5.571705334595959869e+01
5.294558869949494806e+01 7.013987531565656752e+01 5.576029829545454675e+01
5.296598800505050519e+01 7.015096275252524549e+01 5.573540088383838054e+01
5.256904987373737725e+01 6.955547664141414543e+01 5.531620896464646364e+01
5.201006155303030454e+01 6.868051609848484418e+01 5.480141256313131493e+01
5.160065498737373701e+01 6.791994160353534937e+01 5.440857796717171624e+01
5.139942392676767469e+01 6.748417771464646364e+01 5.417877998737373701e+01
5.126878156565656752e+01 6.729876893939393767e+01 5.408443813131312794e+01
5.120004734848485128e+01 6.715838068181818699e+01 5.399329229797979934e+01
5.126909722222222143e+01 6.719570707070707272e+01 5.402809343434343248e+01
5.137239583333333570e+01 6.730437184343433898e+01 5.411040088383838054e+01
5.142325599747474740e+01 6.742609690656566102e+01 5.418651357323232531e+01
5.147750946969696884e+01 6.752517361111111427e+01 5.425623421717171624e+01
5.145624210858586167e+01 6.756372316919191690e+01 5.428989109848485128e+01
5.150848327020202078e+01 6.762985321969696884e+01 5.432319286616161946e+01
5.157015467171716949e+01 6.769247159090909349e+01 5.436355744949494806e+01
5.169973169191919027e+01 6.785014204545454675e+01 5.449329229797979934e+01
5.172644412878787534e+01 6.799396306818181301e+01 5.452821180555555713e+01
5.184722222222222143e+01 6.814820075757575069e+01 5.463999368686868507e+01
5.199143781565656752e+01 6.833376736111111427e+01 5.476937342171716949e+01
5.204131155303030454e+01 6.845908301767676107e+01 5.484355271464646364e+01
5.215435606060606233e+01 6.862389520202020776e+01 5.495659722222222143e+01
5.219988952020202078e+01 6.873918876262625588e+01 5.501365214646464352e+01
5.231541982323232531e+01 6.891453598484848442e+01 5.510913825757575779e+01
5.239528093434343248e+01 6.904079861111111427e+01 5.517305871212121104e+01
5.241098484848485128e+01 6.913020833333332860e+01 5.520959595959595845e+01
5.256135574494949481e+01 6.933108428030303116e+01 5.533676609848485128e+01
5.261584595959595845e+01 6.944444444444444287e+01 5.541051136363636687e+01
5.274558080808080973e+01 6.963131313131313505e+01 5.549842171717171624e+01
5.276302083333333570e+01 6.976112689393939092e+01 5.555784406565656752e+01
5.259895833333333570e+01 6.959927398989898961e+01 5.540845959595959869e+01
5.214094065656565391e+01 6.882907196969696884e+01 5.489867424242424221e+01
5.156865530303030454e+01 6.783948863636364024e+01 5.432717803030303116e+01
5.120931976010101039e+01 6.722257733585858830e+01 5.399404198232323182e+01
5.101526988636363313e+01 6.686012468434343248e+01 5.379004892676767469e+01
5.094251104797979934e+01 6.669819286616161946e+01 5.372218276515151558e+01
5.092771464646464352e+01 6.662926136363635976e+01 5.368576388888888573e+01
5.097636521464646364e+01 6.667759627525252597e+01 5.372447127525252597e+01
5.113640309343434609e+01 6.688356218434343248e+01 5.389161142676767469e+01
5.119839015151514872e+01 6.698974116161616621e+01 5.397679924242424221e+01
5.117242739898989612e+01 6.705973800505050519e+01 5.399944760101010388e+01
5.127963226010101039e+01 6.716536458333332860e+01 5.407887468434343248e+01
5.134793244949494806e+01 6.727785669191919737e+01 5.418805239898989612e+01
5.142226957070707272e+01 6.740017361111111427e+01 5.425323547979797922e+01
5.154537563131312794e+01 6.758072916666667140e+01 5.439370265151514872e+01
5.163624526515151558e+01 6.777134627525252597e+01 5.451471748737373701e+01
5.177564709595959869e+01 6.793821022727273373e+01 5.461908143939393767e+01
5.186028251262626299e+01 6.814058554292928704e+01 5.475580018939393767e+01
5.191623263888888573e+01 6.829217960858585457e+01 5.481364425505050519e+01
5.207556029040404155e+01 6.847786458333332860e+01 5.495008680555555713e+01
5.220501893939393767e+01 6.864820075757575069e+01 5.506770833333333570e+01
5.227075441919191690e+01 6.881968118686869218e+01 5.520036300505050519e+01
5.238529829545454675e+01 6.898678188131313505e+01 5.530291193181817988e+01
5.243087121212121104e+01 6.911000631313130782e+01 5.534816919191919027e+01
5.255531881313131493e+01 6.930358270202020776e+01 5.547703598484848442e+01
5.264350536616161946e+01 6.945079703282827666e+01 5.556159248737373701e+01
5.272478693181817988e+01 6.963766571969696884e+01 5.567964804292929415e+01
5.283834438131312794e+01 6.977742266414141170e+01 5.570213857323232531e+01
5.268162089646464352e+01 6.961485953282827666e+01 5.557193023989898961e+01
5.223421717171716949e+01 6.892155934343433898e+01 5.514030934343434609e+01
5.174179292929292728e+01 6.806297348484848442e+01 5.464441287878787534e+01
5.139946338383838054e+01 6.754940025252524549e+01 5.436852904040404155e+01
5.130677872474747403e+01 6.731798453282827666e+01 5.427110953282828376e+01
5.131467013888888573e+01 6.726637468434343248e+01 5.420529513888888573e+01
5.131703756313131493e+01 6.726842645202020776e+01 5.424143781565656752e+01
5.139389993686868507e+01 6.737354008838383379e+01 5.430835700757575779e+01
5.150587910353535648e+01 6.759236900252524549e+01 5.448662405303030454e+01
5.156194760101010388e+01 6.768426452020202078e+01 5.450686553030303116e+01
5.164875315656565391e+01 6.777485795454545325e+01 5.457394255050505194e+01
5.165368529040404155e+01 6.783534564393939092e+01 5.460807291666666430e+01
5.176538825757575779e+01 6.794010416666667140e+01 5.468742108585858830e+01
5.182023358585858830e+01 6.807291666666667140e+01 5.479356060606060908e+01
5.196354166666666430e+01 6.823674242424242209e+01 5.487152777777777857e+01
5.204008838383838054e+01 6.841524621212121815e+01 5.498216540404040131e+01
5.214109848484848442e+01 6.855239898989898961e+01 5.507970328282828376e+01
5.224569917929292728e+01 6.874790877525252597e+01 5.519282670454545325e+01
5.231119791666666430e+01 6.889437342171717660e+01 5.527931660353535648e+01
5.240056818181817988e+01 6.903898358585858830e+01 5.535748106060606233e+01
5.249285827020202078e+01 6.919724589646465063e+01 5.545403251262626299e+01
5.253503787878787534e+01 6.932702020202020776e+01 5.551751893939393767e+01
5.260392992424242209e+01 6.950291982323231821e+01 5.560314078282828376e+01
5.270525568181817988e+01 6.966500946969696884e+01 5.569199810606060908e+01
5.283546401515151558e+01 6.983798926767676107e+01 5.580042613636363313e+01
5.290411931818182012e+01 7.000512941919191690e+01 5.587223800505050519e+01
5.290664457070707272e+01 7.003053977272726627e+01 5.585108901515151558e+01
5.258396464646464352e+01 6.959674873737374412e+01 5.554450757575757791e+01
5.214046717171716949e+01 6.881060606060606233e+01 5.508191287878787534e+01
5.175489267676767469e+01 6.820059974747475451e+01 5.473090277777777857e+01
5.159311868686868507e+01 6.783585858585858830e+01 5.454482323232323182e+01
5.159331597222222143e+01 6.777087279040404155e+01 5.452434501262626299e+01
5.160104955808080973e+01 6.779186395202020776e+01 5.451708491161615910e+01
5.167305871212121104e+01 6.789464962121212466e+01 5.458893623737373701e+01
5.180812026515151558e+01 6.805622632575757791e+01 5.472636521464646364e+01
5.189086174242424221e+01 6.818189709595959869e+01 5.479726957070707272e+01
5.191035353535353636e+01 6.824289772727273373e+01 5.482670454545454675e+01
5.190972222222222143e+01 6.828645833333332860e+01 5.483317550505050519e+01
5.195091540404040131e+01 6.835211489898989612e+01 5.489141414141413833e+01
5.206447285353535648e+01 6.848839962121212466e+01 5.498997790404040131e+01
5.211032196969696884e+01 6.860842803030303116e+01 5.504671717171716949e+01
5.224491003787878896e+01 6.880977746212121815e+01 5.517688604797979934e+01
5.231032986111111427e+01 6.892175662878787534e+01 5.522873263888888573e+01
5.242479482323232531e+01 6.910740214646465063e+01 5.533309659090909349e+01
5.248567708333333570e+01 6.924151672979797922e+01 5.543248895202020066e+01
5.255772569444444287e+01 6.938458806818181301e+01 5.550264362373737725e+01
5.264358428030303116e+01 6.954573074494949481e+01 5.559702493686868507e+01
5.273950441919191690e+01 6.966090593434343248e+01 5.563896780303030454e+01
5.278290719696969546e+01 6.980216224747475451e+01 5.573003472222222143e+01
5.287263257575757791e+01 6.990356691919191690e+01 5.576136363636363313e+01
5.292408459595959869e+01 7.011095328282827666e+01 5.587578914141413833e+01
5.305279356060606233e+01 7.026254734848484418e+01 5.596251578282828376e+01
5.304999210858586167e+01 7.038837594696970257e+01 5.596713226010101039e+01
5.296330492424242209e+01 7.023019255050505194e+01 5.586639835858586167e+01
5.251941287878787534e+01 6.948374368686869218e+01 5.538068181818182012e+01
5.197478693181817988e+01 6.861099273989898961e+01 5.491133996212121104e+01
5.165786773989898961e+01 6.792806976010101039e+01 5.452024147727272663e+01
5.143197601010101039e+01 6.759643308080808310e+01 5.437705176767676818e+01
5.134197443181817988e+01 6.740810448232323893e+01 5.424396306818182012e+01
5.129525726010101039e+01 6.732335069444444287e+01 5.419061710858586167e+01
5.132891414141413833e+01 6.736647727272726627e+01 5.424431818181817988e+01
5.143832859848485128e+01 6.747447127525252597e+01 5.431916824494949481e+01
5.155587121212121104e+01 6.760984848484848442e+01 5.441082702020202078e+01
5.152059659090909349e+01 6.764638573232323893e+01 5.444152462121212466e+01
5.155898832070707272e+01 6.769961332070707272e+01 5.448575599747474740e+01
5.160207544191919027e+01 6.778042140151515582e+01 5.454699337121212466e+01
5.166690340909090651e+01 6.784998421717172334e+01 5.458183396464646364e+01
5.177268781565656752e+01 6.802584438131313505e+01 5.470182291666666430e+01
5.185262784090909349e+01 6.814476799242424931e+01 5.476298137626262275e+01
5.193540877525252597e+01 6.829494160353534937e+01 5.488001104797979934e+01
5.204446811868687206e+01 6.843414614898989612e+01 5.495371685606060908e+01
5.212255366161615910e+01 6.859619633838383379e+01 5.505894886363636687e+01
5.218880208333333570e+01 6.873993844696970257e+01 5.513829703282828376e+01
5.225437973484848442e+01 6.884307922979797922e+01 5.520134943181817988e+01
5.235925662878787534e+01 6.901092960858585457e+01 5.530133364898989612e+01
5.239697758838384090e+01 6.913877051767676107e+01 5.537456597222222143e+01
5.248240214646464352e+01 6.928985164141414543e+01 5.547577335858586167e+01
5.256987847222222143e+01 6.940116003787878185e+01 5.552095170454545325e+01
5.267333491161615910e+01 6.954644097222222854e+01 5.561257102272727337e+01
5.272443181818182012e+01 6.969949494949494806e+01 5.566887626262626299e+01
5.282642834595959869e+01 6.986036142676768179e+01 5.577087279040404155e+01
5.275623421717171624e+01 6.975165719696970257e+01 5.566848169191919027e+01
5.225366950757575779e+01 6.900303819444444287e+01 5.520127051767676818e+01
5.169290561868687206e+01 6.807832228535353636e+01 5.462472380050505194e+01
5.125560290404040131e+01 6.739922664141414543e+01 5.427596275252525260e+01
5.111533301767676818e+01 6.705914614898989612e+01 5.409607796717171624e+01
5.103030303030303116e+01 6.685606060606060908e+01 5.402304292929292728e+01
5.102134627525252597e+01 6.680449021464646364e+01 5.397415561868687206e+01
5.106392045454545325e+01 6.686474116161616621e+01 5.404292929292929415e+01
5.120257260101010388e+01 6.700402462121212466e+01 5.415080492424242209e+01
5.130164930555555713e+01 6.719479955808080263e+01 5.426724273989898961e+01
5.130164930555555713e+01 6.724861900252524549e+01 5.430985637626262275e+01
5.134619633838384090e+01 6.729190340909090651e+01 5.433877840909090651e+01
5.143075284090909349e+01 6.742049400252524549e+01 5.442223011363636687e+01
5.153649779040404155e+01 6.753397253787878185e+01 5.452671243686868507e+01
5.161935763888888573e+01 6.769006470959595845e+01 5.461746369949494806e+01
5.171030618686868507e+01 6.782125946969696884e+01 5.473808396464646364e+01
5.179876893939393767e+01 6.802493686868686495e+01 5.485558712121212466e+01
5.190948547979797922e+01 6.817984532828282340e+01 5.492211174242424221e+01
5.199408143939393767e+01 6.835550820707071296e+01 5.504458648989898961e+01
5.213036616161615910e+01 6.851625631313130782e+01 5.514693813131312794e+01
5.220351957070707272e+01 6.870241477272726627e+01 5.525370896464646364e+01
5.227229324494949481e+01 6.882611268939393767e+01 5.532469223484848442e+01
5.233542455808080973e+01 6.895127051767676107e+01 5.538592960858586167e+01
5.245351957070707272e+01 6.913865214646465063e+01 5.550907512626262275e+01
5.255523989898989612e+01 6.928188131313130782e+01 5.559154040404040131e+01
5.262034406565656752e+01 6.945115214646465063e+01 5.568947285353535648e+01
5.273551925505050519e+01 6.964318970959595845e+01 5.581096117424242209e+01
5.280271464646464352e+01 6.976262626262625588e+01 5.583727904040404155e+01
5.278590593434343248e+01 6.979916351010101039e+01 5.584635416666666430e+01
5.245553188131312794e+01 6.932737531565656752e+01 5.550445864898989612e+01
5.198528251262626299e+01 6.849901357323231821e+01 5.501889993686868507e+01
5.158787089646464352e+01 6.784465751262625588e+01 5.465668402777777857e+01
5.142440025252525260e+01 6.751388888888888573e+01 5.444539141414141170e+01
5.136825284090909349e+01 6.739934501262625588e+01 5.435325915404040131e+01
5.138742897727272663e+01 6.735460069444444287e+01 5.435270675505050519e+01
5.144716698232323182e+01 6.746657986111111427e+01 5.442901672979797922e+01
5.156837910353535648e+01 6.764966066919191690e+01 5.454659880050505194e+01
5.163754734848485128e+01 6.775560290404040131e+01 5.460787563131312794e+01
5.170300662878787534e+01 6.786257102272726627e+01 5.465723642676767469e+01
5.170059974747474740e+01 6.787294823232323893e+01 5.465877525252525260e+01
5.173780776515151558e+01 6.796160827020202078e+01 5.473591382575757791e+01
5.178543244949494806e+01 6.805673926767676107e+01 5.477422664141413833e+01
5.192964804292929415e+01 6.820111268939393767e+01 5.490471117424242209e+01
5.201207386363636687e+01 6.836466224747475451e+01 5.500307765151514872e+01
5.210566603535353636e+01 6.850512941919191690e+01 5.507567866161615910e+01
5.219045928030303116e+01 6.869030145202020776e+01 5.516331281565656752e+01
5.227118844696969546e+01 6.883416193181818699e+01 5.523630839646464352e+01
5.236845012626262275e+01 6.904521780303029743e+01 5.538154987373737725e+01
5.246772411616161946e+01 6.918284406565656752e+01 5.547593118686868507e+01
5.253890467171716949e+01 6.929553345959595845e+01 5.551744002525252597e+01
5.261805555555555713e+01 6.947174873737374412e+01 5.560369318181817988e+01
5.268793402777777857e+01 6.959670928030303116e+01 5.568777619949494806e+01
5.279782196969696884e+01 6.979135101010101039e+01 5.577351641414141170e+01
5.285566603535353636e+01 6.993615845959595845e+01 5.584998421717171624e+01
5.293947285353535648e+01 7.008704229797979224e+01 5.589433396464646364e+01
5.279016729797979934e+01 6.991595643939393767e+01 5.575654987373737725e+01
5.232761205808080973e+01 6.920529513888888573e+01 5.532161458333333570e+01
5.188498263888888573e+01 6.844006470959595845e+01 5.483810763888888573e+01
5.157970328282828376e+01 6.790230429292928704e+01 5.453472222222222143e+01
5.145829387626262275e+01 6.770198074494949481e+01 5.439563604797979934e+01
5.145746527777777857e+01 6.762839330808080263e+01 5.437555239898989612e+01
5.145576862373737725e+01 6.759449968434343248e+01 5.435175978535353636e+01
5.152450284090909349e+01 6.773630839646465063e+01 5.443012152777777857e+01
5.167562342171716949e+01 6.789579387626262985e+01 5.454288983585858830e+01
5.170596590909090651e+01 6.802020202020202078e+01 5.458648989898989612e+01
5.174112215909090651e+01 6.806356534090909349e+01 5.460002367424242209e+01
5.178630050505050519e+01 6.813241792929292728e+01 5.464630681818182012e+01
5.188529829545454675e+01 6.823978061868686495e+01 5.472431344696969546e+01
5.195860953282828376e+01 6.832398200757575069e+01 5.477868529040404155e+01
5.208033459595959869e+01 6.849668560606060908e+01 5.489251893939393767e+01
5.211040088383838054e+01 6.862492108585858830e+01 5.497182765151514872e+01
5.220525568181817988e+01 6.881573547979797922e+01 5.508546401515151558e+01
5.230358270202020066e+01 6.899739583333332860e+01 5.519278724747474740e+01
5.239654356060606233e+01 6.912539457070707272e+01 5.525907512626262275e+01
5.253069760101010388e+01 6.930721275252524549e+01 5.536845012626262275e+01
5.256735321969696884e+01 6.943509311868686495e+01 5.541773200757575779e+01
5.268781565656565391e+01 6.961994949494949481e+01 5.551783459595959869e+01
5.274329229797979934e+01 6.977769886363635976e+01 5.557930871212121104e+01
5.284801136363636687e+01 6.989504419191919737e+01 5.564393939393939092e+01
5.292057291666666430e+01 7.009481534090909349e+01 5.577142518939393767e+01
5.298922821969696884e+01 7.017720170454545325e+01 5.580078125000000000e+01
5.307773042929292728e+01 7.040459280303029743e+01 5.591153724747474740e+01
5.310491635101010388e+01 7.049475220959595845e+01 5.594172190656565391e+01
5.291422032828283051e+01 7.026096906565656752e+01 5.570572916666666430e+01
5.242803030303030454e+01 6.950031565656566102e+01 5.523311237373737725e+01
5.194006470959595845e+01 6.857595486111111427e+01 5.474909248737373701e+01
5.157516571969696884e+01 6.799404198232323893e+01 5.444243213383838054e+01
5.141232638888888573e+01 6.767337436868686495e+01 5.424471275252525260e+01
5.135554766414141170e+01 6.752884311868686495e+01 5.417451862373737725e+01
5.133179450757575779e+01 6.747178819444444287e+01 5.415834122474747403e+01
5.137930082070707272e+01 6.753523516414141170e+01 5.420632102272727337e+01
5.155425347222222143e+01 6.770782039141414543e+01 5.433771306818182012e+01
5.159970801767676818e+01 6.779588857323231821e+01 5.442215119949494806e+01
5.164303188131312794e+01 6.788624526515151558e+01 5.450003945707070585e+01
5.164315025252525260e+01 6.791887626262625588e+01 5.452099116161615910e+01
5.165755208333333570e+01 6.801108743686869218e+01 5.454486268939393767e+01
5.180322758838384090e+01 6.815960385101010388e+01 5.468422506313131493e+01
5.191283933080808310e+01 6.830598958333332860e+01 5.477773832070707272e+01
5.200875946969696884e+01 6.849139835858585457e+01 5.491848169191919027e+01
5.208187342171716949e+01 6.863253630050505194e+01 5.497960069444444287e+01
5.220391414141413833e+01 6.881976010101010388e+01 5.512263257575757791e+01
5.231912878787878896e+01 6.898484848484848442e+01 5.521717171717171624e+01
5.240242266414141170e+01 6.915100220959595845e+01 5.529304766414141170e+01
5.249341066919191690e+01 6.930228061868686495e+01 5.539350536616161946e+01
5.259351325757575779e+01 6.946283143939393767e+01 5.545872790404040131e+01
5.267495265151514872e+01 6.965411931818181301e+01 5.558830492424242209e+01
5.276633522727272663e+01 6.980737058080808310e+01 5.567621527777777857e+01
5.290052872474747403e+01 6.997155145202020776e+01 5.576684816919191690e+01
5.295351957070707272e+01 7.017463699494949481e+01 5.588423295454545325e+01
5.299577809343434609e+01 7.031774779040404155e+01 5.593927556818182012e+01
5.315475063131312794e+01 7.053874684343433898e+01 5.606368371212121104e+01
5.322743055555555713e+01 7.069128787878787534e+01 5.611600378787878896e+01
5.313005050505050519e+01 7.060337752525252597e+01 5.602320075757575779e+01
5.271429135101010388e+01 6.998465119949494806e+01 5.563016887626262275e+01
5.224814551767676818e+01 6.915344854797979224e+01 5.523693970959595845e+01
5.193809185606060908e+01 6.858108428030303116e+01 5.497076231060606233e+01
5.186430713383838054e+01 6.830606849747475451e+01 5.481585385101010388e+01
5.180535827020202078e+01 6.820166508838383379e+01 5.475895675505050519e+01
5.183238636363636687e+01 6.816714015151515582e+01 5.476309974747474740e+01
5.187764362373737725e+01 6.827379261363635976e+01 5.484418402777777857e+01
5.200185448232323182e+01 6.843209438131313505e+01 5.496965751262626299e+01
5.205374053030303116e+01 6.851696654040404155e+01 5.500607638888888573e+01
5.206222380050505194e+01 6.863592960858585457e+01 5.509252683080808310e+01
5.210400883838384090e+01 6.868671085858585457e+01 5.510274621212121104e+01
5.214441287878787534e+01 6.879592803030303116e+01 5.518166035353535648e+01
5.220316445707070585e+01 6.887346117424242209e+01 5.523299400252525260e+01
5.225177556818182012e+01 6.903918087121212466e+01 5.532421875000000000e+01
5.238825757575757791e+01 6.921148989898989612e+01 5.543418560606060908e+01
5.252454229797979934e+01 6.936560921717172334e+01 5.554158775252525260e+01
5.259446022727272663e+01 6.954474431818181301e+01 5.562381628787878896e+01
5.270730744949494806e+01 6.969057765151515582e+01 5.573208648989898961e+01
5.280954071969696884e+01 6.988198390151515582e+01 5.582658617424242209e+01
5.290092329545454675e+01 7.002765940656566102e+01 5.587093592171716949e+01
5.295387468434343248e+01 7.023323074494949481e+01 5.598244160353535648e+01
5.300635258838384090e+01 7.037882733585858830e+01 5.605322758838384090e+01
5.309513099747474740e+01 7.051258680555555713e+01 5.612622316919191690e+01
5.324238478535353636e+01 7.072107796717172334e+01 5.624664614898989612e+01
5.332090435606060908e+01 7.085215435606060908e+01 5.629360006313131493e+01
5.340179135101010388e+01 7.103042140151515582e+01 5.639484690656565391e+01
5.350974589646464352e+01 7.121413352272726627e+01 5.647723327020202078e+01
5.348859690656565391e+01 7.123275726010101039e+01 5.641268150252525260e+01
5.317124368686868507e+01 7.075820707070707272e+01 5.613967803030303116e+01
5.274321338383838054e+01 7.003125000000000000e+01 5.573327020202020066e+01
5.247810132575757791e+01 6.945048137626262985e+01 5.546184501262626299e+01
5.234726167929292728e+01 6.922731218434343248e+01 5.533274147727272663e+01
