4.967183554292929415e+01 5.209039614898989612e+01 6.637164614898989612e+01
4.947711489898989612e+01 5.201578282828283051e+01 6.624037247474747403e+01
4.953720801767676818e+01 5.193619791666666430e+01 6.622628630050505194e+01
4.944823232323232531e+01 5.177335858585858830e+01 6.619775883838383379e+01
4.935917771464646364e+01 5.178578756313131493e+01 6.618746054292928704e+01
4.941173453282828376e+01 5.186612215909090651e+01 6.619693023989898961e+01
4.948307291666666430e+01 5.193809185606060908e+01 6.629746685606060908e+01
4.947332702020202078e+01 5.203140782828283051e+01 6.634532828282827666e+01
4.950291982323232531e+01 5.211655618686868507e+01 6.641059027777777146e+01
4.963139204545454675e+01 5.222293244949494806e+01 6.646977588383838054e+01
4.966824494949494806e+01 5.230018939393939092e+01 6.651483585858585457e+01
4.971279198232323182e+01 5.241654829545454675e+01 6.660168087121212466e+01
4.976128472222222143e+01 5.251570391414141170e+01 6.666942866161616621e+01
4.980764678030303116e+01 5.258779198232323182e+01 6.671437026515151558e+01
4.991863952020202078e+01 5.273113952020202078e+01 6.681889204545454675e+01
4.993560606060606233e+01 5.287799873737373701e+01 6.691319444444444287e+01
4.996977588383838054e+01 5.296614583333333570e+01 6.696772411616161946e+01
5.003551136363636687e+01 5.309611742424242209e+01 6.707559974747475451e+01
5.012870896464646364e+01 5.321882891414141170e+01 6.712855113636364024e+01
5.018722380050505194e+01 5.337109375000000000e+01 6.724751420454545325e+01
5.026156092171716949e+01 5.350872001262626299e+01 6.733873895202020776e+01
5.034540719696969546e+01 5.362444760101010388e+01 6.743126578282827666e+01
5.044140625000000000e+01 5.378610321969696884e+01 6.755598958333332860e+01
5.054304766414141170e+01 5.391141887626262275e+01 6.764437342171717660e+01
5.059307922979797922e+01 5.407950599747474740e+01 6.775864109848484418e+01
5.063687657828283051e+01 5.416528566919191690e+01 6.779833491161616621e+01
5.076053503787878896e+01 5.433866003787878896e+01 6.792294034090909349e+01
5.082283775252525260e+01 5.446251578282828376e+01 6.800749684343433898e+01
5.090506628787878896e+01 5.458057133838384090e+01 6.809714330808080263e+01
5.095565025252525260e+01 5.470754419191919027e+01 6.817992424242424931e+01
5.097380050505050519e+01 5.481723484848485128e+01 6.823090277777777146e+01
5.059351325757575779e+01 5.449029356060606233e+01 6.788975694444444287e+01
5.002651515151514872e+01 5.362231691919191690e+01 6.717092803030303116e+01
4.943552714646464352e+01 5.256778724747474740e+01 6.637239583333332860e+01
4.900240688131312794e+01 5.186320233585858830e+01 6.591923137626262985e+01
4.897099905303030454e+01 5.151755839646464352e+01 6.579723011363635976e+01
4.890838068181817988e+01 5.140080492424242209e+01 6.573966224747475451e+01
4.892609690656565391e+01 5.129636205808080973e+01 6.571192392676768179e+01
4.878918087121212466e+01 5.112251420454545325e+01 6.561541193181818699e+01
4.874376578282828376e+01 5.096551452020202078e+01 6.551949179292928704e+01
4.873804450757575779e+01 5.097983743686868507e+01 6.555086016414141170e+01
4.874550189393939092e+01 5.096314709595959869e+01 6.553117108585858830e+01
4.863506155303030454e+01 5.085681029040404155e+01 6.544756155303029743e+01
4.858053188131312794e+01 5.074104324494949481e+01 6.537014678030303116e+01
4.856123737373737725e+01 5.070123106060606233e+01 6.533791035353534937e+01
4.862788036616161946e+01 5.073378314393939092e+01 6.540344854797979224e+01
4.866796875000000000e+01 5.083495107323232531e+01 6.546657986111111427e+01
4.877710700757575779e+01 5.096492266414141170e+01 6.559086963383838054e+01
4.884217171717171624e+01 5.112263257575757791e+01 6.570565025252524549e+01
4.897036773989898961e+01 5.129186395202020066e+01 6.583826546717172334e+01
4.902477904040404155e+01 5.144128787878787534e+01 6.595801767676768179e+01
4.910428503787878896e+01 5.156719539141413833e+01 6.606277619949494806e+01
4.919550978535353636e+01 5.171192392676767469e+01 6.616173453282827666e+01
4.924329229797979934e+01 5.185250946969696884e+01 6.624439709595959869e+01
4.930101799242424221e+01 5.194416824494949481e+01 6.630164930555555713e+01
4.941283933080808310e+01 5.212006786616161946e+01 6.641126104797979224e+01
4.944207702020202078e+01 5.225694444444444287e+01 6.652162247474747403e+01
4.952201704545454675e+01 5.236245265151514872e+01 6.658972537878787534e+01
4.958747632575757791e+01 5.250682607323232531e+01 6.668880208333332860e+01
4.971855271464646364e+01 5.269330018939393767e+01 6.681861584595959869e+01
4.978416982323232531e+01 5.282110164141413833e+01 6.691358901515151558e+01
4.988790246212121104e+01 5.300611584595959869e+01 6.703752367424242209e+01
4.990889362373737725e+01 5.315999842171716949e+01 6.709307922979797922e+01
5.001424400252525260e+01 5.331032986111111427e+01 6.720553188131313505e+01
5.012496054292929415e+01 5.347739109848485128e+01 6.733976483585858830e+01
5.019539141414141170e+01 5.360874368686868507e+01 6.743197601010101039e+01
5.025090751262626299e+01 5.377584438131312794e+01 6.753752367424242209e+01
5.034394728535353636e+01 5.393738162878787534e+01 6.766102430555555713e+01
5.045620265151514872e+01 5.409919507575757791e+01 6.777596275252524549e+01
5.051467803030303116e+01 5.423926767676767469e+01 6.786947601010101039e+01
5.059761679292929415e+01 5.440617108585858830e+01 6.796946022727273373e+01
5.072178819444444287e+01 5.456758996212121104e+01 6.809000157828282340e+01
5.073934659090909349e+01 5.463076073232323182e+01 6.813817866161616621e+01
5.029154829545454675e+01 5.406538036616161946e+01 6.760310132575757791e+01
4.973867582070707272e+01 5.313671875000000000e+01 6.682074652777777146e+01
4.944412878787878896e+01 5.252604166666666430e+01 6.644286616161616621e+01
4.929584911616161946e+01 5.225797032828283051e+01 6.633183396464646364e+01
4.932709911616161946e+01 5.217779356060606233e+01 6.630326704545454675e+01
4.923883364898989612e+01 5.207342960858586167e+01 6.627245107323231821e+01
4.923054766414141170e+01 5.195734690656565391e+01 6.622975852272726627e+01
4.912255366161615910e+01 5.183956755050505194e+01 6.610913825757575069e+01
4.914946338383838054e+01 5.182449494949494806e+01 6.611742424242424931e+01
4.915175189393939092e+01 5.180942234848485128e+01 6.610613952020202078e+01
4.907796717171716949e+01 5.168828914141413833e+01 6.604245580808080263e+01
4.902249053030303116e+01 5.157078598484848442e+01 6.597782512626262985e+01
4.900441919191919027e+01 5.151957070707070585e+01 6.593181818181818699e+01
4.904979482323232531e+01 5.150544507575757791e+01 6.595083648989898961e+01
4.907634943181817988e+01 5.158944917929292728e+01 6.602095170454545325e+01
4.914011205808080973e+01 5.171539614898989612e+01 6.612259311868686495e+01
4.921701388888888573e+01 5.183491161616161946e+01 6.619318181818181301e+01
4.927406881313131493e+01 5.196882891414141170e+01 6.629648042929292728e+01
4.938450915404040131e+01 5.214003314393939092e+01 6.643312026515151558e+01
4.941844223484848442e+01 5.224056976010101039e+01 6.649151672979797922e+01
4.949250315656565391e+01 5.239196654040404155e+01 6.655642361111111427e+01
4.954281092171716949e+01 5.248520359848485128e+01 6.663845486111111427e+01
4.964847695707070585e+01 5.263348327020202078e+01 6.675422190656566102e+01
4.969322127525252597e+01 5.276361268939393767e+01 6.684015940656566102e+01
4.974396306818182012e+01 5.288458806818182012e+01 6.692151988636364024e+01
4.983325441919191690e+01 5.302359532828283051e+01 6.704285037878787534e+01
4.990340909090909349e+01 5.313399621212121104e+01 6.711190025252524549e+01
5.000828598484848442e+01 5.331936553030303116e+01 6.720999053030303116e+01
5.009150094696969546e+01 5.344898200757575779e+01 6.730235953282827666e+01
5.019306344696969546e+01 5.361509627525252597e+01 6.743738162878787534e+01
5.024289772727272663e+01 5.376325757575757791e+01 6.751893939393939092e+01
5.038206281565656752e+01 5.393935448232323182e+01 6.766015625000000000e+01
5.046105587121212466e+01 5.407485006313131493e+01 6.776629577020202078e+01
5.049277935606060908e+01 5.423599273989898961e+01 6.787314551767676107e+01
5.057500789141413833e+01 5.438908617424242209e+01 6.796500157828282340e+01
5.069286616161615910e+01 5.453614267676767469e+01 6.806123737373737015e+01
5.076183712121212466e+01 5.466477272727272663e+01 6.815198863636364024e+01
5.089693813131312794e+01 5.483980429292929415e+01 6.827935606060606233e+01
5.099680397727272663e+01 5.504367897727272663e+01 6.843525094696970257e+01
5.101096906565656752e+01 5.517747790404040131e+01 6.850434027777777146e+01
5.088241792929292728e+01 5.501104797979797922e+01 6.830571338383838054e+01
5.032386363636363313e+01 5.420628156565656752e+01 6.759769570707071296e+01
4.988691603535353636e+01 5.347672032828283051e+01 6.702785669191919737e+01
4.972324810606060908e+01 5.313707386363636687e+01 6.680705492424242209e+01
4.972821969696969546e+01 5.300694444444444287e+01 6.677761994949494806e+01
4.971531723484848442e+01 5.296137152777777857e+01 6.679170612373737015e+01
4.972447127525252597e+01 5.292838541666666430e+01 6.681790561868686495e+01
4.966702178030303116e+01 5.284505208333333570e+01 6.675793087121212466e+01
4.967984532828283051e+01 5.283562184343434609e+01 6.675228851010101039e+01
4.967479482323232531e+01 5.282851957070707272e+01 6.677722537878787534e+01
4.966942866161615910e+01 5.278385416666666430e+01 6.672166982323231821e+01
4.953665561868687206e+01 5.264334753787878896e+01 6.661446496212121815e+01
4.956032986111111427e+01 5.258321496212121104e+01 6.657390309343433898e+01
4.947174873737373701e+01 5.252493686868687206e+01 6.655697601010101039e+01
4.953941761363636687e+01 5.258124210858586167e+01 6.661912089646465063e+01
4.963916508838384090e+01 5.271081912878787534e+01 6.672896938131313505e+01
4.972620738636363313e+01 5.280954071969696884e+01 6.683068970959595845e+01
4.978843118686868507e+01 5.294436553030303116e+01 6.693379103535353636e+01
4.988293087121212466e+01 5.307358743686868507e+01 6.700619476010101039e+01
4.992112531565656752e+01 5.317049400252525260e+01 6.708147885101010388e+01
4.998390151515151558e+01 5.324037247474747403e+01 6.713731060606060908e+01
4.999850063131312794e+01 5.334998421717171624e+01 6.720178345959595845e+01
5.004281092171716949e+01 5.345190183080808310e+01 6.727860637626262985e+01
5.009418402777777857e+01 5.355867266414141170e+01 6.736391256313130782e+01
5.017814867424242209e+01 5.365557922979797922e+01 6.742151988636364024e+01
5.025185448232323182e+01 5.375264362373737725e+01 6.748433554292928704e+01
5.030239898989898961e+01 5.386489898989898961e+01 6.757828282828282340e+01
5.041130050505050519e+01 5.402619949494949481e+01 6.770422979797979224e+01
5.046863162878787534e+01 5.412567077020202078e+01 6.776029829545454675e+01
5.049254261363636687e+01 5.425248579545454675e+01 6.785428503787878185e+01
5.061055871212121104e+01 5.438880997474747403e+01 6.795604482323231821e+01
5.066485164141413833e+01 5.451459911616161946e+01 6.804016729797979224e+01
5.074313446969696884e+01 5.464449179292929415e+01 6.812744633838383379e+01
5.084524936868687206e+01 5.482267992424242209e+01 6.825023674242424931e+01
5.090293560606060908e+01 5.491035353535353636e+01 6.830034722222222854e+01
5.094606218434343248e+01 5.503286773989898961e+01 6.840313289141414543e+01
5.103069760101010388e+01 5.516737689393939092e+01 6.848666351010101039e+01
5.107776988636363313e+01 5.530125473484848442e+01 6.857271938131313505e+01
5.119807449494949481e+01 5.546212121212121104e+01 6.867534722222222854e+01
5.111407039141413833e+01 5.538979640151514872e+01 6.859260574494949481e+01
5.059958964646464352e+01 5.466966540404040131e+01 6.790561868686869218e+01
5.008597695707070585e+01 5.385933554292929415e+01 6.728026357323231821e+01
4.990384311868687206e+01 5.336075599747474740e+01 6.696839488636364024e+01
4.978235479797979934e+01 5.316145833333333570e+01 6.690056818181818699e+01
4.981032986111111427e+01 5.311257102272727337e+01 6.689650410353534937e+01
4.980346433080808310e+01 5.304273200757575779e+01 6.690384311868686495e+01
4.972865372474747403e+01 5.291741635101010388e+01 6.682366635101010388e+01
4.965699968434343248e+01 5.279352114898989612e+01 6.676542771464646364e+01
4.970612373737373701e+01 5.279419191919191690e+01 6.679261363636364024e+01
4.968414614898989612e+01 5.278941761363636687e+01 6.679288983585858830e+01
4.966074810606060908e+01 5.270509785353535648e+01 6.674423926767676107e+01
4.955973800505050519e+01 5.258451704545454675e+01 6.664007260101010388e+01
4.958822601010101039e+01 5.256628787878787534e+01 6.663746843434343248e+01
4.959047506313131493e+01 5.257027304292929415e+01 6.666023516414141170e+01
4.965175189393939092e+01 5.267321654040404155e+01 6.677343750000000000e+01
4.971050347222222143e+01 5.278263099747474740e+01 6.685617897727273373e+01
4.980243844696969546e+01 5.290976167929292728e+01 6.697699652777777146e+01
4.984666982323232531e+01 5.302470012626262275e+01 6.706068497474747403e+01
4.994515467171716949e+01 5.315364583333333570e+01 6.713044507575757791e+01
5.000398516414141170e+01 5.326598011363636687e+01 6.720900410353534937e+01
5.009118529040404155e+01 5.337985321969696884e+01 6.729573074494949481e+01
5.007354797979797922e+01 5.345344065656565391e+01 6.732891414141414543e+01
5.019385258838384090e+01 5.358037405303030454e+01 6.741465435606060908e+01
5.023350694444444287e+01 5.373382260101010388e+01 6.754206123737374412e+01
5.031932607323232531e+01 5.384221117424242209e+01 6.763640309343433898e+01
5.037634154040404155e+01 5.396093750000000000e+01 6.771456755050505194e+01
5.049672506313131493e+01 5.410452178030303116e+01 6.783100536616161946e+01
5.052761994949494806e+01 5.423374368686868507e+01 6.791508838383838054e+01
5.063557449494949481e+01 5.437500000000000000e+01 6.799337121212121815e+01
5.071148989898989612e+01 5.451278409090909349e+01 6.810321969696970257e+01
5.077158301767676818e+01 5.464895044191919027e+01 6.819330018939393767e+01
5.085992739898989612e+01 5.478464330808080973e+01 6.829379734848484418e+01
5.097533933080808310e+01 5.492688604797979934e+01 6.841504892676768179e+01
5.098066603535353636e+01 5.505531881313131493e+01 6.847435290404040131e+01
5.107311395202020066e+01 5.517380839646464352e+01 6.857500789141414543e+01
5.113324652777777857e+01 5.530812026515151558e+01 6.866039299242424931e+01
5.122123579545454675e+01 5.544408933080808310e+01 6.873465119949494806e+01
5.129391571969696884e+01 5.557485006313131493e+01 6.881490688131313505e+01
5.137275094696969546e+01 5.571002998737373701e+01 6.892483428030303116e+01
5.141544349747474740e+01 5.584284248737373701e+01 6.900872001262625588e+01
5.146101641414141170e+01 5.590388257575757791e+01 6.903835227272726627e+01
5.100414299242424221e+01 5.530291193181817988e+01 6.847084122474747403e+01
5.045797821969696884e+01 5.440021306818182012e+01 6.773591382575757791e+01
5.010112847222222143e+01 5.377142518939393767e+01 6.733203125000000000e+01
5.001921559343434609e+01 5.351795296717171624e+01 6.721271306818181301e+01
5.002687026515151558e+01 5.344495738636363313e+01 6.722289299242424931e+01
5.004565183080808310e+01 5.338656092171716949e+01 6.723141571969696884e+01
4.999901357323232531e+01 5.331040877525252597e+01 6.718967013888888573e+01
4.994452335858586167e+01 5.320052083333333570e+01 6.713375946969696884e+01
4.997419507575757791e+01 5.319689078282828376e+01 6.713691603535353636e+01
4.994981060606060908e+01 5.315482954545454675e+01 6.712168560606060908e+01
4.984588068181817988e+01 5.302706755050505194e+01 6.701996527777777146e+01
4.975954861111111427e+01 5.286229482323232531e+01 6.692337436868686495e+01
4.977158301767676818e+01 5.282271938131312794e+01 6.691489109848484418e+01
4.980259627525252597e+01 5.282879577020202078e+01 6.693027935606060908e+01
4.987393465909090651e+01 5.291497001262626299e+01 6.704786142676768179e+01
4.990230429292929415e+01 5.301010101010101039e+01 6.710590277777777146e+01
4.999266098484848442e+01 5.314386047979797922e+01 6.720225694444444287e+01
5.006423611111111427e+01 5.325347222222222143e+01 6.729198232323231821e+01
5.012492108585858830e+01 5.336987058080808310e+01 6.735535037878787534e+01
5.017511047979797922e+01 5.346819760101010388e+01 6.743899936868686495e+01
5.022411616161615910e+01 5.357907196969696884e+01 6.752162247474747403e+01
5.030204387626262275e+01 5.368209438131312794e+01 6.759544665404040131e+01
5.031478851010101039e+01 5.377801452020202078e+01 6.765948547979797922e+01
5.038470643939393767e+01 5.389891098484848442e+01 6.773729482323231821e+01
5.045494002525252597e+01 5.400165719696969546e+01 6.780989583333332860e+01
5.052994791666666430e+01 5.411312342171716949e+01 6.789816130050505194e+01
5.057299558080808310e+01 5.421740845959595845e+01 6.797214330808080263e+01
5.061588541666666430e+01 5.434726167929292728e+01 6.807485006313130782e+01
5.070935921717171624e+01 5.447482638888888573e+01 6.815443497474747403e+01
5.074786931818182012e+01 5.456147411616161946e+01 6.821377840909090651e+01
5.082512626262626299e+01 5.472900883838384090e+01 6.833491161616161946e+01
5.092534722222222143e+01 5.485527146464646364e+01 6.843686868686869218e+01
5.099392361111111427e+01 5.499013573232323182e+01 6.853432765151515582e+01
5.110452178030303116e+01 5.512140940656565391e+01 6.862109375000000000e+01
5.116145833333333570e+01 5.524605429292929415e+01 6.869902146464646364e+01
5.124467329545454675e+01 5.536336016414141170e+01 6.878744476010101039e+01
5.131281565656565391e+01 5.549384469696969546e+01 6.889962121212121815e+01
5.136272885101010388e+01 5.560168087121212466e+01 6.896563289141414543e+01
5.133226799242424221e+01 5.562125157828283051e+01 6.894543087121212466e+01
5.088304924242424221e+01 5.495059974747474740e+01 6.834564393939393767e+01
5.033475378787878896e+01 5.409469696969696884e+01 6.767219065656566102e+01
5.001566445707070585e+01 5.350224905303030454e+01 6.726377051767676107e+01
4.993663194444444287e+01 5.327249053030303116e+01 6.716927083333332860e+01
4.993371212121212466e+01 5.317866161616161946e+01 6.715688131313130782e+01
4.992396622474747403e+01 5.314855587121212466e+01 6.715818339646465063e+01
4.987507891414141170e+01 5.306321022727272663e+01 6.711592487373737015e+01
4.986829229797979934e+01 5.300607638888888573e+01 6.710724431818181301e+01
4.989776672979797922e+01 5.299846117424242209e+01 6.712425031565656752e+01
4.981916824494949481e+01 5.293611900252525260e+01 6.706601167929292728e+01
4.979951862373737725e+01 5.283297821969696884e+01 6.697660195707071296e+01
4.967720170454545325e+01 5.267972695707070585e+01 6.689768781565656752e+01
4.967767518939393767e+01 5.265321180555555713e+01 6.689026988636364024e+01
4.972498421717171624e+01 5.270888573232323182e+01 6.695320391414141170e+01
4.976017992424242209e+01 5.276096906565656752e+01 6.702501578282827666e+01
4.981474905303030454e+01 5.290849905303030454e+01 6.710499526515151558e+01
4.996559343434343248e+01 5.305160984848485128e+01 6.723690025252524549e+01
5.002608112373737725e+01 5.321121369949494806e+01 6.734347380050505194e+01
5.013687657828283051e+01 5.335026041666666430e+01 6.743454071969696884e+01
5.015364583333333570e+01 5.346930239898989612e+01 6.752327967171717660e+01
5.027655460858586167e+01 5.359615688131312794e+01 6.763087910353534937e+01
5.032666508838384090e+01 5.375927241161615910e+01 6.773812342171717660e+01
5.038510101010101039e+01 5.385748106060606233e+01 6.778298611111111427e+01
5.043990688131312794e+01 5.397683869949494806e+01 6.789413667929292728e+01
5.052024147727272663e+01 5.411288667929292728e+01 6.797163036616161946e+01
5.058167613636363313e+01 5.423366477272727337e+01 6.807141729797979224e+01
5.067282196969696884e+01 5.440609217171716949e+01 6.818702651515151558e+01
5.074905303030303116e+01 5.454545454545454675e+01 6.829577020202020776e+01
5.074017518939393767e+01 5.451132417929292728e+01 6.823764993686869218e+01
5.028140782828283051e+01 5.388162878787878896e+01 6.768607954545454675e+01
4.979123263888888573e+01 5.302276672979797922e+01 6.704217960858585457e+01
4.954498106060606233e+01 5.248358585858586167e+01 6.673390151515151558e+01
4.946863162878787534e+01 5.224988162878787534e+01 6.663103693181818699e+01
4.939342645202020066e+01 5.214532039141413833e+01 6.660744160353534937e+01
4.941165561868687206e+01 5.209994476010101039e+01 6.659173768939393767e+01
4.933881786616161946e+01 5.196776357323232531e+01 6.652584438131313505e+01
4.934446022727272663e+01 5.196803977272727337e+01 6.653653724747475451e+01
4.940573705808080973e+01 5.201953125000000000e+01 6.659955018939393767e+01
4.938806029040404155e+01 5.202979008838384090e+01 6.660444286616161946e+01
4.936071654040404155e+01 5.198571654040404155e+01 6.656431502525252597e+01
4.939776672979797922e+01 5.195253314393939092e+01 6.654312657828282340e+01
4.942775410353535648e+01 5.195632102272727337e+01 6.658289930555555713e+01
4.945091540404040131e+01 5.203014520202020066e+01 6.663762626262625588e+01
4.953456439393939092e+01 5.219428661616161946e+01 6.678503787878787534e+01
4.971050347222222143e+01 5.238458806818182012e+01 6.693856534090909349e+01
4.977363478535353636e+01 5.255535827020202078e+01 6.706246054292928704e+01
4.981467013888888573e+01 5.270213857323232531e+01 6.714263731060606233e+01
4.988581123737373701e+01 5.287839330808080973e+01 6.727217487373737015e+01
4.998942550505050519e+01 5.303030303030303116e+01 6.737089646464646364e+01
5.003712910353535648e+01 5.316070864898989612e+01 6.748473011363635976e+01
5.016702178030303116e+01 5.331790561868687206e+01 6.758274147727273373e+01
5.021255523989898961e+01 5.347092013888888573e+01 6.765463226010101039e+01
5.028586647727272663e+01 5.359331597222222143e+01 6.776929450757575069e+01
5.037677556818182012e+01 5.378365688131312794e+01 6.785546875000000000e+01
5.045190183080808310e+01 5.392301925505050519e+01 6.797683869949494806e+01
5.052568655303030454e+01 5.408992266414141170e+01 6.809276357323231821e+01
5.064851641414141170e+01 5.424952651515151558e+01 6.818844696969696884e+01
5.071267361111111427e+01 5.439386047979797922e+01 6.827296401515151558e+01
5.081467013888888573e+01 5.459197443181817988e+01 6.841725852272726627e+01
5.093615845959595845e+01 5.474408143939393767e+01 6.853369633838383379e+01
5.098970170454545325e+01 5.490463226010101039e+01 6.863711332070707272e+01
5.105681818181817988e+01 5.503535353535353636e+01 6.873216540404040131e+01
5.116942866161615910e+01 5.519578598484848442e+01 6.882883522727273373e+01
5.124214804292929415e+01 5.535294349747474740e+01 6.893927556818181301e+01
5.131064551767676818e+01 5.551487531565656752e+01 6.903697127525252597e+01
5.141603535353535648e+01 5.566540404040404155e+01 6.914977904040404155e+01
5.148626893939393767e+01 5.581707702020202078e+01 6.924100378787878185e+01
5.154466540404040131e+01 5.597253787878787534e+01 6.935763888888888573e+01
5.165273832070707272e+01 5.611612215909090651e+01 6.946918402777777146e+01
5.171172664141413833e+01 5.625323547979797922e+01 6.953922032828282340e+01
5.142191445707070585e+01 5.580969854797979934e+01 6.910957228535353636e+01
5.070805713383838054e+01 5.480164930555555713e+01 6.829691445707071296e+01
5.028345959595959869e+01 5.401941287878787534e+01 6.774226641414141170e+01
5.011951546717171624e+01 5.365944602272727337e+01 6.756506470959595845e+01
5.013778409090909349e+01 5.352541035353535648e+01 6.752793560606060908e+01
5.010894097222222143e+01 5.346831597222222143e+01 6.754360006313130782e+01
5.009663036616161946e+01 5.340376420454545325e+01 6.752355587121212466e+01
5.001254734848485128e+01 5.322072285353535648e+01 6.741327335858585457e+01
5.007619160353535648e+01 5.323528251262626299e+01 6.745766256313130782e+01
5.002971117424242209e+01 5.324467329545454675e+01 6.745616319444444287e+01
5.002623895202020066e+01 5.317728061868687206e+01 6.742712279040404155e+01
4.992120422979797922e+01 5.305393781565656752e+01 6.733187342171717660e+01
4.989796401515151558e+01 5.298619002525252597e+01 6.731163194444444287e+01
4.988324652777777857e+01 5.298188920454545325e+01 6.732958491161616621e+01
4.996117424242424221e+01 5.306928661616161946e+01 6.740277777777777146e+01
5.008364898989898961e+01 5.318102904040404155e+01 6.750568181818181301e+01
5.013060290404040131e+01 5.332946654040404155e+01 6.759177714646465063e+01
5.016106376262626299e+01 5.346677714646464352e+01 6.769136679292928704e+01
5.032567866161615910e+01 5.367163825757575779e+01 6.783546401515151558e+01
5.036272885101010388e+01 5.376250789141413833e+01 6.790991950757575069e+01
5.047541824494949481e+01 5.390502683080808310e+01 6.801045612373737015e+01
5.055176767676767469e+01 5.405366161616161946e+01 6.808727904040404155e+01
5.060976957070707272e+01 5.417463699494949481e+01 6.818915719696970257e+01
5.068777619949494806e+01 5.431135574494949481e+01 6.826542771464646364e+01
5.074112215909090651e+01 5.443477746212121104e+01 6.834734059343433898e+01
5.080823863636363313e+01 5.455429292929292728e+01 6.842455808080808310e+01
5.086643781565656752e+01 5.469945549242424221e+01 6.851763731060606233e+01
5.094136679292929415e+01 5.485282512626262275e+01 6.863233901515151558e+01
5.105168876262626299e+01 5.497987689393939092e+01 6.872088068181818699e+01
5.113040561868687206e+01 5.514318970959595845e+01 6.884457859848484418e+01
5.124345012626262275e+01 5.528480113636363313e+01 6.894483901515151558e+01
5.128484059343434609e+01 5.542278251262626299e+01 6.902631786616161946e+01
5.137965593434343248e+01 5.557220643939393767e+01 6.912886679292928704e+01
5.143611900252525260e+01 5.571089804292929415e+01 6.923599273989898961e+01
5.152032039141413833e+01 5.585791508838384090e+01 6.934118529040404155e+01
5.164563604797979934e+01 5.603689236111111427e+01 6.945766256313130782e+01
5.169393150252525260e+01 5.611675347222222143e+01 6.950958806818181301e+01
5.171452809343434609e+01 5.624262152777777857e+01 6.958558238636364024e+01
5.178389362373737725e+01 5.638663983585858830e+01 6.966568023989898961e+01
5.191031407828283051e+01 5.654225852272727337e+01 6.978594539141414543e+01
5.197624684343434609e+01 5.665838068181817988e+01 6.986339962121212466e+01
5.176637468434343248e+01 5.642672821969696884e+01 6.960901988636364024e+01
5.112488162878787534e+01 5.542365056818182012e+01 6.876724273989898961e+01
5.055310921717171624e+01 5.446819760101010388e+01 6.810077335858585457e+01
5.028491950757575779e+01 5.390960385101010388e+01 6.777797506313130782e+01
5.022139362373737725e+01 5.364926609848485128e+01 6.768051609848484418e+01
5.015644728535353636e+01 5.355385890151514872e+01 6.767128314393939092e+01
5.014658301767676818e+01 5.344677241161615910e+01 6.762511837121212466e+01
5.005275410353535648e+01 5.324814551767676818e+01 6.750414299242424931e+01
4.998954387626262275e+01 5.313348327020202078e+01 6.745340119949494806e+01
5.003345959595959869e+01 5.312831439393939092e+01 6.746464646464646364e+01
4.997620738636363313e+01 5.307485006313131493e+01 6.742112531565656752e+01
4.990522411616161946e+01 5.293552714646464352e+01 6.734051452020202078e+01
4.981833964646464352e+01 5.278851010101010388e+01 6.725710227272726627e+01
4.982173295454545325e+01 5.276665088383838054e+01 6.724676452020202078e+01
4.986142676767676818e+01 5.282023358585858830e+01 6.729782196969696884e+01
4.993888099747474740e+01 5.292073074494949481e+01 6.739910827020202078e+01
5.003811553030303116e+01 5.305784406565656752e+01 6.747750946969696884e+01
5.012054135101010388e+01 5.317609690656565391e+01 6.759670928030303116e+01
5.016126104797979934e+01 5.334229008838384090e+01 6.770119160353534937e+01
5.026017992424242209e+01 5.346803977272727337e+01 6.778164457070707272e+01
5.031703756313131493e+01 5.357634943181817988e+01 6.785018150252524549e+01
5.036864741161615910e+01 5.368730271464646364e+01 6.792514993686869218e+01
5.042775410353535648e+01 5.380890940656565391e+01 6.797952178030303116e+01
5.046926294191919027e+01 5.389555713383838054e+01 6.804075915404040131e+01
5.048962279040404155e+01 5.398772885101010388e+01 6.808574021464646364e+01
5.061643781565656752e+01 5.412354008838384090e+01 6.821855271464646364e+01
5.064697758838384090e+01 5.425919349747474740e+01 6.827371369949494806e+01
5.073441445707070585e+01 5.439492582070707272e+01 6.838277304292928704e+01
5.077943497474747403e+01 5.456526199494949481e+01 6.846535669191919737e+01
5.087346117424242209e+01 5.470379577020202078e+01 6.856064551767676107e+01
5.095896464646464352e+01 5.483933080808080973e+01 6.867297979797979224e+01
5.105314867424242209e+01 5.500201231060606233e+01 6.878231534090909349e+01
5.114658301767676818e+01 5.513727114898989612e+01 6.888095801767676107e+01
5.119385258838384090e+01 5.524798768939393767e+01 6.895269097222222854e+01
5.128732638888888573e+01 5.540254103535353636e+01 6.905815972222222854e+01
5.135827020202020066e+01 5.554782196969696884e+01 6.916224747474747403e+01
5.142972695707070585e+01 5.569093276515151558e+01 6.923922821969696884e+01
5.153077651515151558e+01 5.581991792929292728e+01 6.933222853535353636e+01
5.156439393939393767e+01 5.595565025252525260e+01 6.943844696969696884e+01
5.154991319444444287e+01 5.599025410353535648e+01 6.941749526515151558e+01
5.112701231060606233e+01 5.531956281565656752e+01 6.884702493686869218e+01
5.053768150252525260e+01 5.433581912878787534e+01 6.808787089646465063e+01
5.010467960858586167e+01 5.359094854797979934e+01 6.762456597222222854e+01
5.004194286616161946e+01 5.325043402777777857e+01 6.750011837121212466e+01
4.999538352272727337e+01 5.313695549242424221e+01 6.745119160353534937e+01
4.999400252525252597e+01 5.306013257575757791e+01 6.744444444444444287e+01
4.994326073232323182e+01 5.295273042929292728e+01 6.739180871212121815e+01
4.984698547979797922e+01 5.279632260101010388e+01 6.727406881313130782e+01
4.982319286616161946e+01 5.281056660353535648e+01 6.728152619949494806e+01
4.988687657828283051e+01 5.278128945707070585e+01 6.726803188131313505e+01
4.975903566919191690e+01 5.267380839646464352e+01 6.719243213383838054e+01
4.968738162878787534e+01 5.251061395202020066e+01 6.705748895202020776e+01
4.968016098484848442e+01 5.245099431818182012e+01 6.706163194444444287e+01
4.972036773989898961e+01 5.249577809343434609e+01 6.710104955808080263e+01
4.977868529040404155e+01 5.258597695707070585e+01 6.718935448232323893e+01
4.985290404040404155e+01 5.272601010101010388e+01 6.728614267676768179e+01
4.994278724747474740e+01 5.288549558080808310e+01 6.740822285353534937e+01
5.006979955808080973e+01 5.302750157828283051e+01 6.752560763888888573e+01
5.007485006313131493e+01 5.316970486111111427e+01 6.756869476010101039e+01
5.013257575757575779e+01 5.329356060606060908e+01 6.763415404040404155e+01
5.017451862373737725e+01 5.335807291666666430e+01 6.771176609848484418e+01
5.025966698232323182e+01 5.347715435606060908e+01 6.779628314393939092e+01
5.028314393939393767e+01 5.358254419191919027e+01 6.785448232323231821e+01
5.038928345959595845e+01 5.371535669191919027e+01 6.797356376262625588e+01
5.041240530303030454e+01 5.384816919191919027e+01 6.804071969696970257e+01
5.049893465909090651e+01 5.394764046717171624e+01 6.810247001262625588e+01
5.057824337121212466e+01 5.412701231060606233e+01 6.823038983585858830e+01
5.063048453282828376e+01 5.427742266414141170e+01 6.830409564393939092e+01
5.069168244949494806e+01 5.433956755050505194e+01 6.832173295454545325e+01
5.029415246212121104e+01 5.378610321969696884e+01 6.786596433080808310e+01
4.977521306818182012e+01 5.291141887626262275e+01 6.719235321969696884e+01
4.944172190656565391e+01 5.223433554292929415e+01 6.678405145202020776e+01
4.931755050505050519e+01 5.191114267676767469e+01 6.659548611111111427e+01
4.929474431818182012e+01 5.171788194444444287e+01 6.654348169191919737e+01
4.926112689393939092e+01 5.169026199494949481e+01 6.656731376262625588e+01
4.919554924242424221e+01 5.155681818181817988e+01 6.649352904040404155e+01
4.922060448232323182e+01 5.155630523989898961e+01 6.650248579545454675e+01
4.930717329545454675e+01 5.166670612373737725e+01 6.661272885101010388e+01
4.930934343434343248e+01 5.169065656565656752e+01 6.660527146464646364e+01
4.928491950757575779e+01 5.162630208333333570e+01 6.657469223484848442e+01
4.923398042929292728e+01 5.155184659090909349e+01 6.652485795454545325e+01
4.923098169191919027e+01 5.153969381313131493e+01 6.651081123737374412e+01
4.927552872474747403e+01 5.162432922979797922e+01 6.657335069444444287e+01
4.942317708333333570e+01 5.179154829545454675e+01 6.673094223484848442e+01
4.946752683080808310e+01 5.195237531565656752e+01 6.682011521464646364e+01
4.961249210858586167e+01 5.214579387626262275e+01 6.695434816919191690e+01
4.967021780303030454e+01 5.232694128787878896e+01 6.709635416666667140e+01
4.978172348484848442e+01 5.249431818181817988e+01 6.718765782828282340e+01
4.983530618686868507e+01 5.264827967171716949e+01 6.728685290404040131e+01
4.991721906565656752e+01 5.278764204545454675e+01 6.738723169191919737e+01
4.994476010101010388e+01 5.291824494949494806e+01 6.744318181818181301e+01
5.006119791666666430e+01 5.306940498737373701e+01 6.755125473484848442e+01
5.016161616161615910e+01 5.321117424242424221e+01 6.766493055555555713e+01
5.022557607323232531e+01 5.335341698232323182e+01 6.777623895202020776e+01
5.025887784090909349e+01 5.349293718434343248e+01 6.783684501262625588e+01
5.042369002525252597e+01 5.369704861111111427e+01 6.798255997474747403e+01
5.045639993686868507e+01 5.387906407828283051e+01 6.807824337121212466e+01
5.058068970959595845e+01 5.400224905303030454e+01 6.819369476010101039e+01
5.066508838383838054e+01 5.416761363636363313e+01 6.829229797979797922e+01
5.074076704545454675e+01 5.433735795454545325e+01 6.839401830808080263e+01
5.084974747474747403e+01 5.450000000000000000e+01 6.850000000000000000e+01
5.088131313131312794e+01 5.463888888888888573e+01 6.857512626262625588e+01
5.096930239898989612e+01 5.479316603535353636e+01 6.867668876262625588e+01
5.108601641414141170e+01 5.497616792929292728e+01 6.880050505050505194e+01
5.114480744949494806e+01 5.509556502525252597e+01 6.886308396464646364e+01
5.128705018939393767e+01 5.528215751262626299e+01 6.899838226010101039e+01
5.131301294191919027e+01 5.539161142676767469e+01 6.906380208333332860e+01
5.139315025252525260e+01 5.555681818181817988e+01 6.918071338383838054e+01
5.146835542929292728e+01 5.569436553030303116e+01 6.928480113636364024e+01
5.146882891414141170e+01 5.570620265151514872e+01 6.924455492424242209e+01
5.087101483585858830e+01 5.490084438131312794e+01 6.856277619949494806e+01
5.031715593434343248e+01 5.393821022727272663e+01 6.783088699494949481e+01
5.001207386363636687e+01 5.332662563131312794e+01 6.747230113636364024e+01
4.989216382575757791e+01 5.303499842171716949e+01 6.733013731060606233e+01
4.989480744949494806e+01 5.294752209595959869e+01 6.735424558080808310e+01
4.985949337121212466e+01 5.286407039141413833e+01 6.731104008838383379e+01
4.979880839646464352e+01 5.269543087121212466e+01 6.720237531565656752e+01
4.978381470959595845e+01 5.261336016414141170e+01 6.718201546717172334e+01
4.978302556818182012e+01 5.261935763888888573e+01 6.718406723484848442e+01
4.975631313131312794e+01 5.257938762626262275e+01 6.715419823232323893e+01
4.967045454545454675e+01 5.247837752525252597e+01 6.708506944444444287e+01
4.957674400252525260e+01 5.229139046717171624e+01 6.694448390151515582e+01
4.959592013888888573e+01 5.232161458333333570e+01 6.697991635101010388e+01
4.967633364898989612e+01 5.235357481060606233e+01 6.705370107323231821e+01
4.977134627525252597e+01 5.249893465909090651e+01 6.716465435606060908e+01
4.983471433080808310e+01 5.264105902777777857e+01 6.726953125000000000e+01
4.990557922979797922e+01 5.277773832070707272e+01 6.738032670454545325e+01
4.999289772727272663e+01 5.294002525252525260e+01 6.748484848484848442e+01
5.004281092171716949e+01 5.305370107323232531e+01 6.755575284090909349e+01
5.013087910353535648e+01 5.319132733585858830e+01 6.765502683080808310e+01
5.019910037878787534e+01 5.332220643939393767e+01 6.774281881313130782e+01
5.022439236111111427e+01 5.341852114898989612e+01 6.779210069444444287e+01
5.030354324494949481e+01 5.352829071969696884e+01 6.787803819444444287e+01
5.036825284090909349e+01 5.367507102272727337e+01 6.793406723484848442e+01
5.045529513888888573e+01 5.379336332070707272e+01 6.802789614898989612e+01
5.056751104797979934e+01 5.394661458333333570e+01 6.815984059343433898e+01
5.058522727272727337e+01 5.410148358585858830e+01 6.824921085858585457e+01
5.067029671717171624e+01 5.420486111111111427e+01 6.831376262626262985e+01
5.073887310606060908e+01 5.439117739898989612e+01 6.844452335858585457e+01
5.084008049242424221e+01 5.455030776515151558e+01 6.854920296717172334e+01
5.089224273989898961e+01 5.469211647727272663e+01 6.861620107323231821e+01
5.099112215909090651e+01 5.484055397727272663e+01 6.873117897727273373e+01
5.108049242424242209e+01 5.500394570707070585e+01 6.885321969696970257e+01
5.116228693181817988e+01 5.514318970959595845e+01 6.893675031565656752e+01
5.124798768939393767e+01 5.527734375000000000e+01 6.901882102272726627e+01
5.131806344696969546e+01 5.540518465909090651e+01 6.911115056818181301e+01
5.138131313131312794e+01 5.552967171717171624e+01 6.918371212121212466e+01
5.147072285353535648e+01 5.566327335858586167e+01 6.927548926767676107e+01
5.158842329545454675e+01 5.586383364898989612e+01 6.941465435606060908e+01
5.159517045454545325e+01 5.599526515151514872e+01 6.949289772727273373e+01
5.153168402777777857e+01 5.585681029040404155e+01 6.934592013888888573e+01
5.092463699494949481e+01 5.498145517676767469e+01 6.859382891414141170e+01
5.042144097222222143e+01 5.411257102272727337e+01 6.792270359848484418e+01
5.010432449494949481e+01 5.357733585858586167e+01 6.761521464646465063e+01
5.005989583333333570e+01 5.340459280303030454e+01 6.756889204545454675e+01
5.004955808080808310e+01 5.326420454545454675e+01 6.754624368686869218e+01
5.003144728535353636e+01 5.315471117424242209e+01 6.748646622474747403e+01
4.991220801767676818e+01 5.290952493686868507e+01 6.737164614898989612e+01
4.985546875000000000e+01 5.281332859848485128e+01 6.729880839646465063e+01
4.985708648989898961e+01 5.280942234848485128e+01 6.729711174242424931e+01
4.986900252525252597e+01 5.277635732323232531e+01 6.730397727272726627e+01
4.976550662878787534e+01 5.267128314393939092e+01 6.723394097222222854e+01
4.973615056818182012e+01 5.254896622474747403e+01 6.714192708333332860e+01
4.968710542929292728e+01 5.251412563131312794e+01 6.711134785353534937e+01
4.973445391414141170e+01 5.253732638888888573e+01 6.715048926767676107e+01
4.980097853535353636e+01 5.258838383838384090e+01 6.719365530303029743e+01
4.987365845959595845e+01 5.272750946969696884e+01 6.731652462121212466e+01
4.991279987373737725e+01 5.287002840909090651e+01 6.741848169191919737e+01
4.998544034090909349e+01 5.299506786616161946e+01 6.750043402777777146e+01
5.002367424242424221e+01 5.306202651515151558e+01 6.753582702020202078e+01
5.013379892676767469e+01 5.322123579545454675e+01 6.766205018939393767e+01
5.016670612373737725e+01 5.330827809343434609e+01 6.771657986111111427e+01
5.023693970959595845e+01 5.339429450757575779e+01 6.777450284090909349e+01
5.029099589646464352e+01 5.352663352272727337e+01 6.783992266414141170e+01
5.034173768939393767e+01 5.364571496212121104e+01 6.794495738636364024e+01
5.039749053030303116e+01 5.379300820707070585e+01 6.802769886363635976e+01
5.049625157828283051e+01 5.394195864898989612e+01 6.813103693181818699e+01
5.057994002525252597e+01 5.407899305555555713e+01 6.819720643939393767e+01
5.052714646464646364e+01 5.404229797979797922e+01 6.815593434343433898e+01
5.015830176767676818e+01 5.344523358585858830e+01 6.766603535353534937e+01
4.970628156565656752e+01 5.267092803030303116e+01 6.708065025252524549e+01
4.946350220959595845e+01 5.217988478535353636e+01 6.679825599747475451e+01
4.934765625000000000e+01 5.198985953282828376e+01 6.672533933080808310e+01
4.939500473484848442e+01 5.185980902777777857e+01 6.669314236111111427e+01
4.933759469696969546e+01 5.182402146464646364e+01 6.666792929292928704e+01
4.927493686868687206e+01 5.166335227272727337e+01 6.660890151515151558e+01
4.932043087121212466e+01 5.171326546717171624e+01 6.665628945707071296e+01
4.937953756313131493e+01 5.178768150252525260e+01 6.671760574494949481e+01
4.937334280303030454e+01 5.177959280303030454e+01 6.671535669191919737e+01
4.931557765151514872e+01 5.170509785353535648e+01 6.664480744949494806e+01
4.925883838383838054e+01 5.160779671717171624e+01 6.656107954545454675e+01
4.929269255050505194e+01 5.161087436868687206e+01 6.659635416666667140e+01
4.932607323232323182e+01 5.170012626262626299e+01 6.667629419191919737e+01
4.940948547979797922e+01 5.183751578282828376e+01 6.678085542929292728e+01
4.953799715909090651e+01 5.198007417929292728e+01 6.690368529040404155e+01
4.962354008838384090e+01 5.214200599747474740e+01 6.703626104797979224e+01
4.966599589646464352e+01 5.227268781565656752e+01 6.711075599747475451e+01
4.979470486111111427e+01 5.241354955808080973e+01 6.721626420454545325e+01
4.983479324494949481e+01 5.254628314393939092e+01 6.728665561868686495e+01
4.990842013888888573e+01 5.269298453282828376e+01 6.737922190656566102e+01
4.992282196969696884e+01 5.279387626262626299e+01 6.744049873737374412e+01
5.002395044191919027e+01 5.295182291666666430e+01 6.755157039141414543e+01
5.006518308080808310e+01 5.308065025252525260e+01 6.763241792929292728e+01
5.018556660353535648e+01 5.321508049242424221e+01 6.770687342171717660e+01
5.024672506313131493e+01 5.337582859848485128e+01 6.782974273989898961e+01
5.033207070707070585e+01 5.349289772727272663e+01 6.792029671717172334e+01
5.038478535353535648e+01 5.362263257575757791e+01 6.799810606060606233e+01
5.047076231060606233e+01 5.379730902777777857e+01 6.812764362373737015e+01
5.057413983585858830e+01 5.397723327020202078e+01 6.822044665404040131e+01
5.062717013888888573e+01 5.410775726010101039e+01 6.831735321969696884e+01
5.033195233585858830e+01 5.376503314393939092e+01 6.799151672979797922e+01
4.983076862373737725e+01 5.290415877525252597e+01 6.732271938131313505e+01
4.941765309343434609e+01 5.215581597222222143e+01 6.682011521464646364e+01
4.926720328282828376e+01 5.179419191919191690e+01 6.664741161616161946e+01
4.926345486111111427e+01 5.164019097222222143e+01 6.659126420454545325e+01
4.925319602272727337e+01 5.155054450757575779e+01 6.656995738636364024e+01
4.922017045454545325e+01 5.140546085858586167e+01 6.652320075757575069e+01
4.915293560606060908e+01 5.130445075757575779e+01 6.643560606060606233e+01
4.916011679292929415e+01 5.134225063131312794e+01 6.645651830808080263e+01
4.928105271464646364e+01 5.141883680555555713e+01 6.657082544191919737e+01
4.921855271464646364e+01 5.136328125000000000e+01 6.652710700757575069e+01
4.914666193181817988e+01 5.126834753787878896e+01 6.646831597222222854e+01
4.913778409090909349e+01 5.124636994949494806e+01 6.644618055555555713e+01
4.920442708333333570e+01 5.129644097222222143e+01 6.649782986111111427e+01
4.926479640151514872e+01 5.141852114898989612e+01 6.661896306818181301e+01
4.934947127525252597e+01 5.156301294191919027e+01 6.673157354797979224e+01
4.944041982323232531e+01 5.174345012626262275e+01 6.684335542929292728e+01
4.952391098484848442e+01 5.190869633838384090e+01 6.694657512626262985e+01
4.961193970959595845e+01 5.209126420454545325e+01 6.706806344696970257e+01
4.971681660353535648e+01 5.220797821969696884e+01 6.717909564393939092e+01
4.975335385101010388e+01 5.234063289141413833e+01 6.726187657828282340e+01
4.984363162878787534e+01 5.246310763888888573e+01 6.731869476010101039e+01
4.990936710858586167e+01 5.259544665404040131e+01 6.743193655303029743e+01
4.995608428030303116e+01 5.275943023989898961e+01 6.751290246212121815e+01
5.006853693181817988e+01 5.293169981060606233e+01 6.762567077020202078e+01
5.015439551767676818e+01 5.308321496212121104e+01 6.775524779040404155e+01
5.021251578282828376e+01 5.326601957070707272e+01 6.785250946969696884e+01
5.035744160353535648e+01 5.341852114898989612e+01 6.796871054292928704e+01
5.040849905303030454e+01 5.358116319444444287e+01 6.806175031565656752e+01
5.052560763888888573e+01 5.375051294191919027e+01 6.820253314393939092e+01
5.061549084595959869e+01 5.390400094696969546e+01 6.829667771464646364e+01
5.070194128787878896e+01 5.405673926767676818e+01 6.839228219696970257e+01
5.077809343434343248e+01 5.423989898989898961e+01 6.851988636363635976e+01
5.086426767676767469e+01 5.438746843434343248e+01 6.860527146464646364e+01
5.091607481060606233e+01 5.453965435606060908e+01 6.869953440656566102e+01
5.099459438131312794e+01 5.471397569444444287e+01 6.879131155303029743e+01
5.107796717171716949e+01 5.485479797979797922e+01 6.888636363636364024e+01
5.122068339646464352e+01 5.500587910353535648e+01 6.903302556818181301e+01
5.124475220959595845e+01 5.514247948232323182e+01 6.907634943181818699e+01
5.134915561868687206e+01 5.530117582070707272e+01 6.919022253787878185e+01
5.143876262626262275e+01 5.546638257575757791e+01 6.930445075757575069e+01
5.146188446969696884e+01 5.554458648989898961e+01 6.933720012626262985e+01
5.100860164141413833e+01 5.494752209595959869e+01 6.880074179292928704e+01
5.042578125000000000e+01 5.391520675505050519e+01 6.802473958333332860e+01
5.003874684343434609e+01 5.315680239898989612e+01 6.752643623737374412e+01
4.986509627525252597e+01 5.279075915404040131e+01 6.732200915404040131e+01
4.983278093434343248e+01 5.265175189393939092e+01 6.730626578282827666e+01
4.983901515151514872e+01 5.255666035353535648e+01 6.727635732323231821e+01
4.967858270202020066e+01 5.235408775252525260e+01 6.715948547979797922e+01
4.965802556818182012e+01 5.218990688131312794e+01 6.708747632575757791e+01
4.965033143939393767e+01 5.218252840909090651e+01 6.711418876262625588e+01
4.965289614898989612e+01 5.217704387626262275e+01 6.710759943181818699e+01
4.961991003787878896e+01 5.208471433080808310e+01 6.707824337121212466e+01
4.957749368686868507e+01 5.198942550505050519e+01 6.700962752525252597e+01
4.950355113636363313e+01 5.191201073232323182e+01 6.696172664141414543e+01
4.953716856060606233e+01 5.191422032828283051e+01 6.697971906565656752e+01
4.951432291666666430e+01 5.199064867424242209e+01 6.703515625000000000e+01
4.967447916666666430e+01 5.215774936868687206e+01 6.719294507575757791e+01
4.978014520202020066e+01 5.231060606060606233e+01 6.729797979797979224e+01
4.986549084595959869e+01 5.246429135101010388e+01 6.740479008838383379e+01
4.996101641414141170e+01 5.259138257575757791e+01 6.750820707070707272e+01
5.002249053030303116e+01 5.278937815656565391e+01 6.762018623737374412e+01
5.008491161616161946e+01 5.288873106060606233e+01 6.770833333333332860e+01
5.014942392676767469e+01 5.303152619949494806e+01 6.777032039141414543e+01
5.022494476010101039e+01 5.312914299242424221e+01 6.783084753787878185e+01
5.027513415404040131e+01 5.327781723484848442e+01 6.794606218434343248e+01
5.034110637626262275e+01 5.344906092171716949e+01 6.803602430555555713e+01
5.043844696969696884e+01 5.358222853535353636e+01 6.813383838383838054e+01
5.052643623737373701e+01 5.373555871212121104e+01 6.824755366161616621e+01
5.065625000000000000e+01 5.390119949494949481e+01 6.837515782828282340e+01
5.070166508838384090e+01 5.405346433080808310e+01 6.847565498737374412e+01
5.080413510101010388e+01 5.420438762626262275e+01 6.857133838383838054e+01
5.092949021464646364e+01 5.440960385101010388e+01 6.870568970959595845e+01
5.098682133838384090e+01 5.456873421717171624e+01 6.881589330808080263e+01
5.110953282828283051e+01 5.473516414141413833e+01 6.893529040404040131e+01
5.117246685606060908e+01 5.489200599747474740e+01 6.900580018939393767e+01
5.124329229797979934e+01 5.502817234848485128e+01 6.909872159090909349e+01
5.130914614898989612e+01 5.517530776515151558e+01 6.918951231060606233e+01
5.135850694444444287e+01 5.532047032828283051e+01 6.927470012626262985e+01
5.144807449494949481e+01 5.549747474747474740e+01 6.940719696969696884e+01
5.153373579545454675e+01 5.564058554292929415e+01 6.950564236111111427e+01
5.163880997474747403e+01 5.578701073232323182e+01 6.959446022727273373e+01
5.174281881313131493e+01 5.593789457070707272e+01 6.968521148989898961e+01
5.183506944444444287e+01 5.610306186868687206e+01 6.978724747474747403e+01
5.163589015151514872e+01 5.589157196969696884e+01 6.957623106060606233e+01
5.100134154040404155e+01 5.498461174242424221e+01 6.880626578282827666e+01
5.055097853535353636e+01 5.410937500000000000e+01 6.818134469696970257e+01
5.030642361111111427e+01 5.361403093434343248e+01 6.792779356060606233e+01
5.022411616161615910e+01 5.338162878787878896e+01 6.784390782828282340e+01
5.026475694444444287e+01 5.330200441919191690e+01 6.782583648989898961e+01
5.017219065656565391e+01 5.318970959595959869e+01 6.778298611111111427e+01
5.003681344696969546e+01 5.296800031565656752e+01 6.766228693181818699e+01
5.001909722222222143e+01 5.288825757575757791e+01 6.761016414141414543e+01
5.001842645202020066e+01 5.287669665404040131e+01 6.763900726010101039e+01
5.002245107323232531e+01 5.286683238636363313e+01 6.762235637626262985e+01
5.001006155303030454e+01 5.275548453282828376e+01 6.756514362373737015e+01
4.992088857323232531e+01 5.265289614898989612e+01 6.749932922979797922e+01
4.992601799242424221e+01 5.260562657828283051e+01 6.743785511363635976e+01
4.992830650252525260e+01 5.262748579545454675e+01 6.753152619949494806e+01
5.000670770202020066e+01 5.273508522727272663e+01 6.761087436868686495e+01
5.007946654040404155e+01 5.288423295454545325e+01 6.772356376262625588e+01
5.015727588383838054e+01 5.301459911616161946e+01 6.784225063131313505e+01
5.023725536616161946e+01 5.314098011363636687e+01 6.791986268939393767e+01
5.033021622474747403e+01 5.328302556818182012e+01 6.801882102272726627e+01
5.033538510101010388e+01 5.337657828282828376e+01 6.806960227272726627e+01
5.041639046717171624e+01 5.352560763888888573e+01 6.815881470959595845e+01
5.048327020202020066e+01 5.369444444444444287e+01 6.826294191919191690e+01
5.054269255050505194e+01 5.380184659090909349e+01 6.831573547979797922e+01
5.067562342171716949e+01 5.393998579545454675e+01 6.844693023989898961e+01
5.070924084595959869e+01 5.405804135101010388e+01 6.851669034090909349e+01
5.078053977272727337e+01 5.420004734848485128e+01 6.860566603535353636e+01
5.087468434343434609e+01 5.435132575757575779e+01 6.870722853535353636e+01
5.093990688131312794e+01 5.448899147727272663e+01 6.879391571969696884e+01
5.107047032828283051e+01 5.465806502525252597e+01 6.890711805555555713e+01
5.112034406565656752e+01 5.477406881313131493e+01 6.896993371212121815e+01
5.120399305555555713e+01 5.495904356060606233e+01 6.910203598484848442e+01
5.125568181818182012e+01 5.509706439393939092e+01 6.917724116161616621e+01
5.137129103535353636e+01 5.522166982323232531e+01 6.926933396464646364e+01
5.142534722222222143e+01 5.536347853535353636e+01 6.933948863636364024e+01
5.149810606060606233e+01 5.550552398989898961e+01 6.943718434343433898e+01
5.156261837121212466e+01 5.565699968434343248e+01 6.954541508838383379e+01
5.165194917929292728e+01 5.580804135101010388e+01 6.963869160353534937e+01
5.169030145202020066e+01 5.593367266414141170e+01 6.972786458333332860e+01
5.180421401515151558e+01 5.607946654040404155e+01 6.981573547979797922e+01
5.183664772727272663e+01 5.621054292929292728e+01 6.987752525252524549e+01
5.196354166666666430e+01 5.635779671717171624e+01 7.000126262626262985e+01
5.179324494949494806e+01 5.617550505050505194e+01 6.982133838383838054e+01
5.122601010101010388e+01 5.530523989898989612e+01 6.907686237373737015e+01
5.071026672979797922e+01 5.439729324494949481e+01 6.842917455808080263e+01
5.043473800505050519e+01 5.388691603535353636e+01 6.813975694444444287e+01
5.038293087121212466e+01 5.364492582070707272e+01 6.809426294191919737e+01
5.038596906565656752e+01 5.355232007575757791e+01 6.807189078282827666e+01
5.034899779040404155e+01 5.347683869949494806e+01 6.803491950757575069e+01
5.024727746212121104e+01 5.328452493686868507e+01 6.793840751262625588e+01
5.025623421717171624e+01 5.324502840909090651e+01 6.793142361111111427e+01
5.026649305555555713e+01 5.325718118686868507e+01 6.794105113636364024e+01
5.024621212121212466e+01 5.320785984848485128e+01 6.792345328282827666e+01
5.008648989898989612e+01 5.300789141414141170e+01 6.778898358585858830e+01
5.007193023989898961e+01 5.293682922979797922e+01 6.775690498737374412e+01
5.008964646464646364e+01 5.293828914141413833e+01 6.776089015151515582e+01
5.014745107323232531e+01 5.298078440656565391e+01 6.782421875000000000e+01
5.018813131313131493e+01 5.301988636363636687e+01 6.790988005050505194e+01
5.022865372474747403e+01 5.315210700757575779e+01 6.796081912878787534e+01
5.036852904040404155e+01 5.336931818181817988e+01 6.812784090909090651e+01
5.046310763888888573e+01 5.350461647727272663e+01 6.822541824494949481e+01
5.054229797979797922e+01 5.362389520202020066e+01 6.833349116161616621e+01
5.055354324494949481e+01 5.372620738636363313e+01 6.835294349747475451e+01
5.066212910353535648e+01 5.390534248737373701e+01 6.848394097222222854e+01
5.070273042929292728e+01 5.401728219696969546e+01 6.856810290404040131e+01
5.080989583333333570e+01 5.416927083333333570e+01 6.867968750000000000e+01
5.089204545454545325e+01 5.428125000000000000e+01 6.875536616161616621e+01
5.094716698232323182e+01 5.443753945707070585e+01 6.883889678030303116e+01
5.102470012626262275e+01 5.458009785353535648e+01 6.893805239898989612e+01
5.114555713383838054e+01 5.474546243686868507e+01 6.903207859848484418e+01
5.119109059343434609e+01 5.488695549242424221e+01 6.911012468434343248e+01
5.124633049242424221e+01 5.501637468434343248e+01 6.921145044191919737e+01
5.134911616161615910e+01 5.517266414141413833e+01 6.933049242424242209e+01
5.143276515151514872e+01 5.531723484848485128e+01 6.942676767676768179e+01
5.147782512626262275e+01 5.545430871212121104e+01 6.950797032828282340e+01
5.158080808080808310e+01 5.562389520202020066e+01 6.958017676767676107e+01
5.164401830808080973e+01 5.572245896464646364e+01 6.968237058080808310e+01
5.174447601010101039e+01 5.592250631313131493e+01 6.981044823232323893e+01
5.186308396464646364e+01 5.606731376262626299e+01 6.991074810606060908e+01
5.189942392676767469e+01 5.621113478535353636e+01 6.999317392676768179e+01
5.195785984848485128e+01 5.637405303030303116e+01 7.009296085858585457e+01
5.203326231060606233e+01 5.647565498737373701e+01 7.018193655303029743e+01
5.183171559343434609e+01 5.621586963383838054e+01 6.993351483585858830e+01
5.121330492424242209e+01 5.525891729797979934e+01 6.917258522727273373e+01
5.073544034090909349e+01 5.436675347222222143e+01 6.857634943181818699e+01
5.050473484848485128e+01 5.383017676767676818e+01 6.828282828282827666e+01
5.043035827020202078e+01 5.360302241161615910e+01 6.822802241161616621e+01
5.045296717171716949e+01 5.352761994949494806e+01 6.822316919191919737e+01
5.040723642676767469e+01 5.336430713383838054e+01 6.815755208333332860e+01
5.028030303030303116e+01 5.316587752525252597e+01 6.805224116161616621e+01
5.027525252525252597e+01 5.313541666666666430e+01 6.802509469696970257e+01
5.028081597222222143e+01 5.314192708333333570e+01 6.806301294191919737e+01
5.029577020202020066e+01 5.311821338383838054e+01 6.804766414141414543e+01
5.021697443181817988e+01 5.303342013888888573e+01 6.799790877525252597e+01
5.020162563131312794e+01 5.298192866161615910e+01 6.799692234848484418e+01
5.017487373737373701e+01 5.292597853535353636e+01 6.799021464646465063e+01
5.027008364898989612e+01 5.301266571969696884e+01 6.805890940656566102e+01
5.033151830808080973e+01 5.314117739898989612e+01 6.815648674242424931e+01
5.039354482323232531e+01 5.327975063131312794e+01 6.825954861111111427e+01
5.046705334595959869e+01 5.349356849747474740e+01 6.836541193181818699e+01
5.055709438131312794e+01 5.366631155303030454e+01 6.853752367424242209e+01
5.070213857323232531e+01 5.384071180555555713e+01 6.865052872474747403e+01
5.078823390151514872e+01 5.398220486111111427e+01 6.871500157828282340e+01
5.087618371212121104e+01 5.412255366161615910e+01 6.881021148989898961e+01
5.096586963383838054e+01 5.427158301767676818e+01 6.892041508838383379e+01
5.101605902777777857e+01 5.442230902777777857e+01 6.900927241161616621e+01
5.101637468434343248e+01 5.457003630050505194e+01 6.905504261363635976e+01
5.114030934343434609e+01 5.470501893939393767e+01 6.916477272727273373e+01
5.120687342171716949e+01 5.487717013888888573e+01 6.927931660353534937e+01
5.133629261363636687e+01 5.502616003787878896e+01 6.939389993686869218e+01
5.140944602272727337e+01 5.517949021464646364e+01 6.948630839646465063e+01
5.151254734848485128e+01 5.535045770202020066e+01 6.958641098484848442e+01
5.158439867424242209e+01 5.553989109848485128e+01 6.973323074494949481e+01
5.169657512626262275e+01 5.569105113636363313e+01 6.982141729797979224e+01
5.177016256313131493e+01 5.587638099747474740e+01 6.995008680555555713e+01
5.191394412878787534e+01 5.605362215909090651e+01 7.007398200757575069e+01
5.197585227272727337e+01 5.622932449494949481e+01 7.017250631313130782e+01
5.201783459595959869e+01 5.636158459595959869e+01 7.019791666666667140e+01
5.210558712121212466e+01 5.652604166666666430e+01 7.032149621212121815e+01
5.221204229797979934e+01 5.668394886363636687e+01 7.042416351010101039e+01
5.224944760101010388e+01 5.684461805555555713e+01 7.052170138888888573e+01
5.235755997474747403e+01 5.701096906565656752e+01 7.065475063131313505e+01
5.240254103535353636e+01 5.714086174242424221e+01 7.073224431818181301e+01
5.251661142676767469e+01 5.729754577020202078e+01 7.083873895202020776e+01
5.242633364898989612e+01 5.720016571969696884e+01 7.073110006313130782e+01
5.185231218434343248e+01 5.633163667929292728e+01 7.000398516414141170e+01
5.128969381313131493e+01 5.533641098484848442e+01 6.929348169191919737e+01
5.100165719696969546e+01 5.468473800505050519e+01 6.896077967171717660e+01
5.088892834595959869e+01 5.437219854797979934e+01 6.884962910353534937e+01
5.085815183080808310e+01 5.426787405303030454e+01 6.883289930555555713e+01
5.078961489898989612e+01 5.417897727272727337e+01 6.881770833333332860e+01
5.073713699494949481e+01 5.404158775252525260e+01 6.872624684343433898e+01
5.071961805555555713e+01 5.391769255050505194e+01 6.870209911616161946e+01
5.070430871212121104e+01 5.391737689393939092e+01 6.871725063131313505e+01
5.072297190656565391e+01 5.389216382575757791e+01 6.871934185606060908e+01
5.071192392676767469e+01 5.382082544191919027e+01 6.866583806818181301e+01
5.060969065656565391e+01 5.369223484848485128e+01 6.859927398989898961e+01
5.057634943181817988e+01 5.361722695707070585e+01 6.853941761363635976e+01
5.062081755050505194e+01 5.368237058080808310e+01 6.857962436868686495e+01
5.069969223484848442e+01 5.379028566919191690e+01 6.872494476010101039e+01
5.078622159090909349e+01 5.395367739898989612e+01 6.883262310606060908e+01
5.087275094696969546e+01 5.413190498737373701e+01 6.893903882575757791e+01
5.096366003787878896e+01 5.428373579545454675e+01 6.905299084595959869e+01
5.102398989898989612e+01 5.444523358585858830e+01 6.916240530303029743e+01
5.108585858585858830e+01 5.458159722222222143e+01 6.923200757575757791e+01
5.116729797979797922e+01 5.470265151515151558e+01 6.929466540404040131e+01
5.122782512626262275e+01 5.481920770202020066e+01 6.933956755050505194e+01
5.128448547979797922e+01 5.490790719696969546e+01 6.939212436868686495e+01
5.133349116161615910e+01 5.507481060606060908e+01 6.953488005050505194e+01
5.143087121212121104e+01 5.520517676767676818e+01 6.961347853535353636e+01
5.147293244949494806e+01 5.536750315656565391e+01 6.970383522727273373e+01
5.160049715909090651e+01 5.549569917929292728e+01 6.979431029040404155e+01
5.169176136363636687e+01 5.567881944444444287e+01 6.990893308080808310e+01
5.174238478535353636e+01 5.579920296717171624e+01 6.997786458333332860e+01
5.182650726010101039e+01 5.596018781565656752e+01 7.009812973484848442e+01
5.189066445707070585e+01 5.610294349747474740e+01 7.017223011363635976e+01
5.198871527777777857e+01 5.629916351010101039e+01 7.028132891414141170e+01
5.204683554292929415e+01 5.641994160353535648e+01 7.033076862373737015e+01
5.213869160353535648e+01 5.656735321969696884e+01 7.043493529040404155e+01
5.222770675505050519e+01 5.670829387626262275e+01 7.052126736111111427e+01
5.232922979797979934e+01 5.685716540404040131e+01 7.062452651515151558e+01
5.235542929292929415e+01 5.698090277777777857e+01 7.067803030303029743e+01
5.240585542929292728e+01 5.714086174242424221e+01 7.076112689393939092e+01
5.245454545454545325e+01 5.725552398989898961e+01 7.085211489898989612e+01
5.253140782828283051e+01 5.741414141414141170e+01 7.096022727272726627e+01
5.260842803030303116e+01 5.754340277777777857e+01 7.104135101010101039e+01
5.244262941919191690e+01 5.729537563131312794e+01 7.081936553030303116e+01
5.179399463383838054e+01 5.631640625000000000e+01 7.000011837121212466e+01
5.127047821969696884e+01 5.527158301767676818e+01 6.932035195707071296e+01
5.095296717171716949e+01 5.468623737373737725e+01 6.901862373737374412e+01
5.083802872474747403e+01 5.439674084595959869e+01 6.889879261363635976e+01
5.088640309343434609e+01 5.428349905303030454e+01 6.890897253787878185e+01
5.083431976010101039e+01 5.416670612373737725e+01 6.887567077020202078e+01
5.069353693181817988e+01 5.399025410353535648e+01 6.875524779040404155e+01
5.072474747474747403e+01 5.391982323232323182e+01 6.875078914141414543e+01
5.073200757575757791e+01 5.390814393939393767e+01 6.875299873737374412e+01
5.069606218434343248e+01 5.388482481060606233e+01 6.873315183080808310e+01
5.059698547979797922e+01 5.373808396464646364e+01 6.864670138888888573e+01
5.055969854797979934e+01 5.360673137626262275e+01 6.857990056818181301e+01
5.054332386363636687e+01 5.356889204545454675e+01 6.857252209595959869e+01
5.056715593434343248e+01 5.361908143939393767e+01 6.860882260101010388e+01
5.066485164141413833e+01 5.374139835858586167e+01 6.869767992424242209e+01
5.071074021464646364e+01 5.389366319444444287e+01 6.880512152777777146e+01
5.080042613636363313e+01 5.404995265151514872e+01 6.893205492424242209e+01
5.090755208333333570e+01 5.419748263888888573e+01 6.903854955808080263e+01
5.101688762626262275e+01 5.433917297979797922e+01 6.912515782828282340e+01
5.102750157828283051e+01 5.445442708333333570e+01 6.917649147727273373e+01
5.111608270202020066e+01 5.461276830808080973e+01 6.924818497474747403e+01
5.114283459595959869e+01 5.472032828282828376e+01 6.933475378787878185e+01
5.123587436868687206e+01 5.485677083333333570e+01 6.941611426767676107e+01
5.133668718434343248e+01 5.501613794191919027e+01 6.952355587121212466e+01
5.138679766414141170e+01 5.512811710858586167e+01 6.957540246212121815e+01
5.145758364898989612e+01 5.525840435606060908e+01 6.965486900252524549e+01
5.154742739898989612e+01 5.540932765151514872e+01 6.975907512626262985e+01
5.159146148989898961e+01 5.555374053030303116e+01 6.985598169191919737e+01
5.166331281565656752e+01 5.567830650252525260e+01 6.990920928030303116e+01
5.177683080808080973e+01 5.584106691919191690e+01 7.004245580808080263e+01
5.182492897727272663e+01 5.600437973484848442e+01 7.013585069444444287e+01
5.189922664141413833e+01 5.618079229797979934e+01 7.025055239898989612e+01
5.198240214646464352e+01 5.633972537878787534e+01 7.028937815656566102e+01
5.205871212121212466e+01 5.648800505050505194e+01 7.040703914141414543e+01
5.211055871212121104e+01 5.661687184343434609e+01 7.047624684343433898e+01
5.223938604797979934e+01 5.675564236111111427e+01 7.057303503787878185e+01
5.231624842171716949e+01 5.691631155303030454e+01 7.066283933080808310e+01
5.237855113636363313e+01 5.703053977272727337e+01 7.073839962121212466e+01
5.240696022727272663e+01 5.717148042929292728e+01 7.083814709595959869e+01
5.249072758838384090e+01 5.731948390151514872e+01 7.093233112373737015e+01
5.245470328282828376e+01 5.732007575757575779e+01 7.088967803030303116e+01
5.194771938131312794e+01 5.654541508838384090e+01 7.024333175505050519e+01
5.135992739898989612e+01 5.546298926767676818e+01 6.948224431818181301e+01
5.094819286616161946e+01 5.466615372474747403e+01 6.902742266414141170e+01
5.082548137626262275e+01 5.428854955808080973e+01 6.887993213383838054e+01
5.079900568181817988e+01 5.413439078282828376e+01 6.887318497474747403e+01
5.078811553030303116e+01 5.408214962121212466e+01 6.886134785353534937e+01
5.072482638888888573e+01 5.396867108585858830e+01 6.877943497474747403e+01
5.067862215909090651e+01 5.386817392676767469e+01 6.872360321969696884e+01
5.069452335858586167e+01 5.387428977272727337e+01 6.877406881313130782e+01
5.066824494949494806e+01 5.385479797979797922e+01 6.877225378787878185e+01
5.055859375000000000e+01 5.373914930555555713e+01 6.868122632575757791e+01
5.052876420454545325e+01 5.359663036616161946e+01 6.859552556818181301e+01
5.050603693181817988e+01 5.355022885101010388e+01 6.856964172979797922e+01
5.054068023989898961e+01 5.357729640151514872e+01 6.860744160353534937e+01
5.059075126262626299e+01 5.368008207070707272e+01 6.868434343434343248e+01
5.072458964646464352e+01 5.386332070707070585e+01 6.882844065656566102e+01
5.077209595959595845e+01 5.401672979797979934e+01 6.893529040404040131e+01
5.088383838383838054e+01 5.417297979797979934e+01 6.905034722222222854e+01
5.099076704545454675e+01 5.436766098484848442e+01 6.917558396464646364e+01
5.106186868686868507e+01 5.452225378787878896e+01 6.923106060606060908e+01
5.116575915404040131e+01 5.468375157828283051e+01 6.934773516414141170e+01
5.122707544191919027e+01 5.481735321969696884e+01 6.942909564393939092e+01
5.124751420454545325e+01 5.496800031565656752e+01 6.946342329545454675e+01
5.134915561868687206e+01 5.510657354797979934e+01 6.958100536616161946e+01
5.145509785353535648e+01 5.526807133838384090e+01 6.969910037878787534e+01
5.150694444444444287e+01 5.541729797979797922e+01 6.977683080808080263e+01
5.157402146464646364e+01 5.556707702020202078e+01 6.987468434343433898e+01
5.170351957070707272e+01 5.573824179292929415e+01 6.996046401515151558e+01
5.178768150252525260e+01 5.594077493686868507e+01 7.007524463383838054e+01
5.184757733585858830e+01 5.610815183080808310e+01 7.019353693181818699e+01
5.196760574494949481e+01 5.627568655303030454e+01 7.031467013888888573e+01
5.203140782828283051e+01 5.642960858585858830e+01 7.038841540404040131e+01
5.212519728535353636e+01 5.661525410353535648e+01 7.048567708333332860e+01
5.224459438131312794e+01 5.680804135101010388e+01 7.059623579545454675e+01
5.227750157828283051e+01 5.699577809343434609e+01 7.070490056818181301e+01
5.232453440656565391e+01 5.708747632575757791e+01 7.076171875000000000e+01
5.237855113636363313e+01 5.724708017676767469e+01 7.084414457070707272e+01
5.250706281565656752e+01 5.741710069444444287e+01 7.097297190656566102e+01
5.257867739898989612e+01 5.756399936868687206e+01 7.106510416666667140e+01
5.266051136363636687e+01 5.772032828282828376e+01 7.116635101010101039e+01
5.269902146464646364e+01 5.779876893939393767e+01 7.119523358585858830e+01
5.224917140151514872e+01 5.720561079545454675e+01 7.066205018939393767e+01
5.168292297979797922e+01 5.621780303030303116e+01 6.989504419191919737e+01
5.125410353535353636e+01 5.542061237373737725e+01 6.939220328282827666e+01
5.110093118686868507e+01 5.502485795454545325e+01 6.921693497474747403e+01
5.107919034090909349e+01 5.488332544191919027e+01 6.919377367424242209e+01
5.104734848484848442e+01 5.481123737373737725e+01 6.918102904040404155e+01
5.097995580808080973e+01 5.468023989898989612e+01 6.911600378787878185e+01
5.094318181818182012e+01 5.453203914141413833e+01 6.904198232323231821e+01
5.089101957070707272e+01 5.450244633838384090e+01 6.902722537878787534e+01
5.094850852272727337e+01 5.451732165404040131e+01 6.904036458333332860e+01
5.092234848484848442e+01 5.447537878787878896e+01 6.903661616161616621e+01
5.082283775252525260e+01 5.433862058080808310e+01 6.893394886363635976e+01
5.074988162878787534e+01 5.421168718434343248e+01 6.881474905303029743e+01
5.077627840909090651e+01 5.422088068181817988e+01 6.882804608585858830e+01
5.087949810606060908e+01 5.426081123737373701e+01 6.892274305555555713e+01
5.091130050505050519e+01 5.437957702020202078e+01 6.899763257575757791e+01
5.096760574494949481e+01 5.454162720959595845e+01 6.909986584595959869e+01
5.105859375000000000e+01 5.466986268939393767e+01 6.919274779040404155e+01
5.119756155303030454e+01 5.483723958333333570e+01 6.928973327020202078e+01
5.122020991161615910e+01 5.495805713383838054e+01 6.936036142676768179e+01
5.129774305555555713e+01 5.510929608585858830e+01 6.945746527777777146e+01
5.126791351010101039e+01 5.520288825757575779e+01 6.953385416666667140e+01
5.140064709595959869e+01 5.530089962121212466e+01 6.957804608585858830e+01
5.145904356060606233e+01 5.540396148989898961e+01 6.963644255050505194e+01
5.148690025252525260e+01 5.551846590909090651e+01 6.969681186868686495e+01
5.156285511363636687e+01 5.567349273989898961e+01 6.978334122474747403e+01
5.161036142676767469e+01 5.579533617424242209e+01 6.986525410353534937e+01
5.169550978535353636e+01 5.592609690656565391e+01 6.995860953282827666e+01
5.177675189393939092e+01 5.605042613636363313e+01 7.002154356060606233e+01
5.183289930555555713e+01 5.620458491161615910e+01 7.009094854797979224e+01
5.187330334595959869e+01 5.633084753787878896e+01 7.016244476010101039e+01
5.198019255050505194e+01 5.648429608585858830e+01 7.027943497474747403e+01
5.203902304292929415e+01 5.658495107323232531e+01 7.033447758838383379e+01
5.205662089646464352e+01 5.672833806818182012e+01 7.041599589646465063e+01
5.215747316919191690e+01 5.684229008838384090e+01 7.047202493686869218e+01
5.218769728535353636e+01 5.697478693181817988e+01 7.056506470959595845e+01
5.229387626262626299e+01 5.709958964646464352e+01 7.065672348484848442e+01
5.238967803030303116e+01 5.727351641414141170e+01 7.078724747474747403e+01
5.248279671717171624e+01 5.741571969696969546e+01 7.089788510101010388e+01
5.249108270202020066e+01 5.750244633838384090e+01 7.092732007575757791e+01
5.253566919191919027e+01 5.760432449494949481e+01 7.097743055555555713e+01
5.257757260101010388e+01 5.771030618686868507e+01 7.105137310606060908e+01
5.227166193181817988e+01 5.726471748737373701e+01 7.063671875000000000e+01
5.161426767676767469e+01 5.624321338383838054e+01 6.974842171717172334e+01
5.117562342171716949e+01 5.536517518939393767e+01 6.922028882575757791e+01
5.091587752525252597e+01 5.488115530303030454e+01 6.895722853535353636e+01
5.087125157828283051e+01 5.468738162878787534e+01 6.889508364898989612e+01
5.086040088383838054e+01 5.456368371212121104e+01 6.886797664141414543e+01
5.077761994949494806e+01 5.437547348484848442e+01 6.877604166666667140e+01
5.064831912878787534e+01 5.417372948232323182e+01 6.866915246212121815e+01
5.064299242424242209e+01 5.409406565656565391e+01 6.861979166666667140e+01
5.063352272727272663e+01 5.402493686868687206e+01 6.858633207070707272e+01
5.054360006313131493e+01 5.389902935606060908e+01 6.851755839646465063e+01
5.044389204545454675e+01 5.370130997474747403e+01 6.841090593434343248e+01
5.038060290404040131e+01 5.357410037878787534e+01 6.831557765151515582e+01
5.037417140151514872e+01 5.355867266414141170e+01 6.831151357323231821e+01
5.041386521464646364e+01 5.362693339646464352e+01 6.835310132575757791e+01
5.049585700757575779e+01 5.372928503787878896e+01 6.844740372474747403e+01
5.055437184343434609e+01 5.387586805555555713e+01 6.852564709595959869e+01
5.062985321969696884e+01 5.398196811868687206e+01 6.863190498737374412e+01
5.071511994949494806e+01 5.410448232323232531e+01 6.871022727272726627e+01
5.072490530303030454e+01 5.416114267676767469e+01 6.874952651515151558e+01
5.076270517676767469e+01 5.429726957070707272e+01 6.881510416666667140e+01
5.084765625000000000e+01 5.439847695707070585e+01 6.889105902777777146e+01
5.091958648989898961e+01 5.449834280303030454e+01 6.896835542929292728e+01
5.095604482323232531e+01 5.462365845959595845e+01 6.902754103535353636e+01
5.103377525252525260e+01 5.475710227272727337e+01 6.912026515151515582e+01
5.109205334595959869e+01 5.487740688131312794e+01 6.920758364898989612e+01
5.114835858585858830e+01 5.499116161616161946e+01 6.924936868686869218e+01
5.121685606060606233e+01 5.513809974747474740e+01 6.933349116161616621e+01
5.126594065656565391e+01 5.526815025252525260e+01 6.941145833333332860e+01
5.135858585858586167e+01 5.539046717171716949e+01 6.949021464646465063e+01
5.145651830808080973e+01 5.553985164141413833e+01 6.959698547979797922e+01
5.147439236111111427e+01 5.565147569444444287e+01 6.965021306818181301e+01
5.154182449494949481e+01 5.581250000000000000e+01 6.972490530303029743e+01
5.159706439393939092e+01 5.592029671717171624e+01 6.978803661616161946e+01
5.171823705808080973e+01 5.605504261363636687e+01 6.990084438131313505e+01
5.180393781565656752e+01 5.620892518939393767e+01 6.999475220959595845e+01
5.184568339646464352e+01 5.632548137626262275e+01 7.005685763888888573e+01
5.188281250000000000e+01 5.645067866161615910e+01 7.012239583333332860e+01
5.196740845959595845e+01 5.658798926767676818e+01 7.024060921717172334e+01
5.206506470959595845e+01 5.674767203282828376e+01 7.034252683080808310e+01
5.214693813131312794e+01 5.688194444444444287e+01 7.043497474747475451e+01
5.216358901515151558e+01 5.700118371212121104e+01 7.050718118686869218e+01
5.225595801767676818e+01 5.709560448232323182e+01 7.056782670454545325e+01
5.191552241161615910e+01 5.668067392676767469e+01 7.017799084595959869e+01
5.132753314393939092e+01 5.567775410353535648e+01 6.937235637626262985e+01
5.081080334595959869e+01 5.473757102272727337e+01 6.877103061868686495e+01
5.055575284090909349e+01 5.419716698232323182e+01 6.849072758838383379e+01
5.046642203282828376e+01 5.393943339646464352e+01 6.838277304292928704e+01
5.046306818181817988e+01 5.383617424242424221e+01 6.835811237373737015e+01
5.033400410353535648e+01 5.370032354797979934e+01 6.828665561868686495e+01
5.030003156565656752e+01 5.356833964646464352e+01 6.821038510101010388e+01
5.033526672979797922e+01 5.356285511363636687e+01 6.823757102272726627e+01
5.036363636363636687e+01 5.357733585858586167e+01 6.826373106060606233e+01
5.030381944444444287e+01 5.347806186868687206e+01 6.817518939393939092e+01
5.019168244949494806e+01 5.329427083333333570e+01 6.807078598484848442e+01
5.009319760101010388e+01 5.312855113636363313e+01 6.798366477272726627e+01
5.011442550505050519e+01 5.308948863636363313e+01 6.795801767676768179e+01
5.015494791666666430e+01 5.310333806818182012e+01 6.800722064393939092e+01
5.017716224747474740e+01 5.320399305555555713e+01 6.806005366161616621e+01
5.024538352272727337e+01 5.329257417929292728e+01 6.812574968434343248e+01
5.028559027777777857e+01 5.340254103535353636e+01 6.820004734848484418e+01
5.032879577020202078e+01 5.347983743686868507e+01 6.824435763888888573e+01
5.034611742424242209e+01 5.356171085858586167e+01 6.829308712121212466e+01
5.044511521464646364e+01 5.367238794191919027e+01 6.833984375000000000e+01
5.051566445707070585e+01 5.375935132575757791e+01 6.843753945707071296e+01
5.056561710858586167e+01 5.389958175505050519e+01 6.854020675505050519e+01
5.067751736111111427e+01 5.407177241161615910e+01 6.865905145202020776e+01
5.074408143939393767e+01 5.423145517676767469e+01 6.877391098484848442e+01
5.086738478535353636e+01 5.439610953282828376e+01 6.886154513888888573e+01
5.089484690656565391e+01 5.452489741161615910e+01 6.894661458333332860e+01
5.100619476010101039e+01 5.468817077020202078e+01 6.905638415404040131e+01
5.105606849747474740e+01 5.481222380050505194e+01 6.914824021464646364e+01
5.116938920454545325e+01 5.499025410353535648e+01 6.925303819444444287e+01
5.118169981060606233e+01 5.506616950757575779e+01 6.930843592171717660e+01
5.131005366161615910e+01 5.524281881313131493e+01 6.941816603535353636e+01
5.139133522727272663e+01 5.537949810606060908e+01 6.950576073232323893e+01
5.149806660353535648e+01 5.557382417929292728e+01 6.965021306818181301e+01
5.157571811868687206e+01 5.574569917929292728e+01 6.975895675505050519e+01
5.168059501262626299e+01 5.591197127525252597e+01 6.985688920454545325e+01
5.174802714646464352e+01 5.610187815656565391e+01 6.996235795454545325e+01
5.181171085858586167e+01 5.625378787878787534e+01 7.004924242424242209e+01
5.185736268939393767e+01 5.636951546717171624e+01 7.011115056818181301e+01
5.196551452020202078e+01 5.652864583333333570e+01 7.020620265151515582e+01
5.201779513888888573e+01 5.666141887626262275e+01 7.027568655303029743e+01
5.180685763888888573e+01 5.638466698232323182e+01 7.002166193181818699e+01
5.112614425505050519e+01 5.536051925505050519e+01 6.920395359848484418e+01
5.057394255050505194e+01 5.430579229797979934e+01 6.850149936868686495e+01
5.030965909090909349e+01 5.373232323232323182e+01 6.821890782828282340e+01
5.020999053030303116e+01 5.344973169191919027e+01 6.811908143939393767e+01
5.019957386363636687e+01 5.336576704545454675e+01 6.810235164141414543e+01
5.018363320707070585e+01 5.321867108585858830e+01 6.803748421717172334e+01
5.005630523989898961e+01 5.304068023989898961e+01 6.792972695707071296e+01
5.003306502525252597e+01 5.291674558080808310e+01 6.786292613636364024e+01
5.002781723484848442e+01 5.290455334595959869e+01 6.789066445707071296e+01
4.998946496212121104e+01 5.285404829545454675e+01 6.787425031565656752e+01
4.995628156565656752e+01 5.275299873737373701e+01 6.780902777777777146e+01
4.984221117424242209e+01 5.259631470959595845e+01 6.768864425505050519e+01
4.982193023989898961e+01 5.256530145202020066e+01 6.764200599747475451e+01
4.985148358585858830e+01 5.257607323232323182e+01 6.769570707070707272e+01
4.995320391414141170e+01 5.272372159090909349e+01 6.785298295454545325e+01
5.006131628787878896e+01 5.288502209595959869e+01 6.796693497474747403e+01
5.018386994949494806e+01 5.302272727272727337e+01 6.804277146464646364e+01
5.021192392676767469e+01 5.320639993686868507e+01 6.816536458333332860e+01
5.032579703282828376e+01 5.334126420454545325e+01 6.824956597222222854e+01
5.044349747474747403e+01 5.350678661616161946e+01 6.836979166666667140e+01
5.048374368686868507e+01 5.365277777777777857e+01 6.848074494949494806e+01
5.055922506313131493e+01 5.376771622474747403e+01 6.854786142676768179e+01
5.059323705808080973e+01 5.390778882575757791e+01 6.862354008838383379e+01
5.064271622474747403e+01 5.403965435606060908e+01 6.868974905303029743e+01
5.075840435606060908e+01 5.417933238636363313e+01 6.879470486111111427e+01
5.080101799242424221e+01 5.429533617424242209e+01 6.887219854797979224e+01
5.090112058080808310e+01 5.447892992424242209e+01 6.898019255050505194e+01
5.095237531565656752e+01 5.460467960858586167e+01 6.907532354797979224e+01
5.105381944444444287e+01 5.474100378787878896e+01 6.917566287878787534e+01
5.113861268939393767e+01 5.491291824494949481e+01 6.926408617424242209e+01
5.121622474747474740e+01 5.507780934343434609e+01 6.935842803030303116e+01
5.128941761363636687e+01 5.521871054292929415e+01 6.944882417929292728e+01
5.136237373737373701e+01 5.539630681818182012e+01 6.954813762626262985e+01
5.144266887626262275e+01 5.552647569444444287e+01 6.963427241161616621e+01
5.152986900252525260e+01 5.568469854797979934e+01 6.973315183080808310e+01
5.162511837121212466e+01 5.582997948232323182e+01 6.984071180555555713e+01
5.170032354797979934e+01 5.598488794191919027e+01 6.990423768939393767e+01
5.174684343434343248e+01 5.610937500000000000e+01 6.997206439393939092e+01
5.182796717171716949e+01 5.631139520202020066e+01 7.014062500000000000e+01
5.188908617424242209e+01 5.642238794191919027e+01 7.017838541666667140e+01
5.196208175505050519e+01 5.655772569444444287e+01 7.024112215909090651e+01
5.208668718434343248e+01 5.674341066919191690e+01 7.038735006313130782e+01
5.185140467171716949e+01 5.648808396464646364e+01 7.013139204545454675e+01
5.116212910353535648e+01 5.536020359848485128e+01 6.927324021464646364e+01
5.061391256313131493e+01 5.428768150252525260e+01 6.853057922979797922e+01
5.027982954545454675e+01 5.364046717171716949e+01 6.818970959595959869e+01
5.014843750000000000e+01 5.331510416666666430e+01 6.806999684343433898e+01
5.015273832070707272e+01 5.319787720959595845e+01 6.805677872474747403e+01
5.010408775252525260e+01 5.309793244949494806e+01 6.804679608585858830e+01
5.008893623737373701e+01 5.298429608585858830e+01 6.798303345959595845e+01
5.003578756313131493e+01 5.288443023989898961e+01 6.795324337121212466e+01
5.002967171717171624e+01 5.287342171717171624e+01 6.795391414141414543e+01
4.998764993686868507e+01 5.286454387626262275e+01 6.793682922979797922e+01
4.994716698232323182e+01 5.270947758838384090e+01 6.784031723484848442e+01
4.982836174242424221e+01 5.255452967171716949e+01 6.772182765151515582e+01
4.987472380050505194e+01 5.250035511363636687e+01 6.772841698232323893e+01
4.986083491161615910e+01 5.253192077020202078e+01 6.775035511363635976e+01
4.994132733585858830e+01 5.268454071969696884e+01 6.787062026515151558e+01
5.002426609848485128e+01 5.281877367424242209e+01 6.796665877525252597e+01
5.011998895202020066e+01 5.297841698232323182e+01 6.807627051767676107e+01
5.023370422979797922e+01 5.316268150252525260e+01 6.822234059343433898e+01
5.028243371212121104e+01 5.329127209595959869e+01 6.828416982323231821e+01
5.040171243686868507e+01 5.346752683080808310e+01 6.843169981060606233e+01
5.043248895202020066e+01 5.359978693181817988e+01 6.848551925505050519e+01
5.050374842171716949e+01 5.371223958333333570e+01 6.853957544191919737e+01
5.057741477272727337e+01 5.386324179292929415e+01 6.862697285353534937e+01
5.063754734848485128e+01 5.398776830808080973e+01 6.868868371212121815e+01
5.070166508838384090e+01 5.410065498737373701e+01 6.876416508838383379e+01
5.079632260101010388e+01 5.425576073232323182e+01 6.889322916666667140e+01
5.085306186868687206e+01 5.441003787878787534e+01 6.898200757575757791e+01
5.094543087121212466e+01 5.454344223484848442e+01 6.909789299242424931e+01
5.095308554292929415e+01 5.473417771464646364e+01 6.911122948232323893e+01
5.108305713383838054e+01 5.486257102272727337e+01 6.925430082070707272e+01
5.118552714646464352e+01 5.502249053030303116e+01 6.936734532828282340e+01
5.125883838383838054e+01 5.517945075757575779e+01 6.946764520202020776e+01
5.133885732323232531e+01 5.533238636363636687e+01 6.955381944444444287e+01
5.142507102272727337e+01 5.547036773989898961e+01 6.963245738636364024e+01
5.156218434343434609e+01 5.563652146464646364e+01 6.975426136363635976e+01
5.156723484848485128e+01 5.578061868686868507e+01 6.983301767676768179e+01
5.168059501262626299e+01 5.592538667929292728e+01 6.994764046717172334e+01
5.174254261363636687e+01 5.605441130050505194e+01 7.002142518939393767e+01
5.181774779040404155e+01 5.620237531565656752e+01 7.009315814393939092e+01
5.190151515151514872e+01 5.631344696969696884e+01 7.015956439393939092e+01
5.192866161616161946e+01 5.647080176767676818e+01 7.026025883838383379e+01
5.200879892676767469e+01 5.660665246212121104e+01 7.035365372474747403e+01
5.165171243686868507e+01 5.613308869949494806e+01 6.992365056818181301e+01
5.101017992424242209e+01 5.500702335858586167e+01 6.907804608585858830e+01
5.042124368686868507e+01 5.397253787878787534e+01 6.836852904040404155e+01
5.014500473484848442e+01 5.341741635101010388e+01 6.807413983585858830e+01
5.006340751262626299e+01 5.314137468434343248e+01 6.804399463383838054e+01
5.007615214646464352e+01 5.306068497474747403e+01 6.804442866161616621e+01
5.010148358585858830e+01 5.300157828282828376e+01 6.804766414141414543e+01
5.002426609848485128e+01 5.293288352272727337e+01 6.800074968434343248e+01
5.002911931818182012e+01 5.290427714646464352e+01 6.800797032828282340e+01
5.009757733585858830e+01 5.291607481060606233e+01 6.802639678030303116e+01
5.004004892676767469e+01 5.280662089646464352e+01 6.795434816919191690e+01
4.988454861111111427e+01 5.262350063131312794e+01 6.779521780303029743e+01
4.984876104797979934e+01 5.248985953282828376e+01 6.773496685606060908e+01
4.982402146464646364e+01 5.246448863636363313e+01 6.771969696969696884e+01
4.988368055555555713e+01 5.252367424242424221e+01 6.776452020202020776e+01
4.995525568181817988e+01 5.268458017676767469e+01 6.789733270202020776e+01
5.006833964646464352e+01 5.284864267676767469e+01 6.803093434343433898e+01
5.016366792929292728e+01 5.300205176767676818e+01 6.814488636363635976e+01
5.024636994949494806e+01 5.316193181818182012e+01 6.825473484848484418e+01
5.028342013888888573e+01 5.331009311868687206e+01 6.832603377525252597e+01
5.037121212121212466e+01 5.343544823232323182e+01 6.841177398989898961e+01
5.039176925505050519e+01 5.354896622474747403e+01 6.847747001262625588e+01
5.052833017676767469e+01 5.373035037878787534e+01 6.859714330808080263e+01
5.052998737373737725e+01 5.380366161616161946e+01 6.863857323232323893e+01
5.058222853535353636e+01 5.390893308080808310e+01 6.868371212121212466e+01
5.068450126262626299e+01 5.406944444444444287e+01 6.875915404040404155e+01
5.080559501262626299e+01 5.425019728535353636e+01 6.889445233585858830e+01
5.084173768939393767e+01 5.439397885101010388e+01 6.899530460858585457e+01
5.096630366161615910e+01 5.453274936868687206e+01 6.910235164141414543e+01
5.102754103535353636e+01 5.468473800505050519e+01 6.919089330808080263e+01
5.110361426767676818e+01 5.488865214646464352e+01 6.932331123737374412e+01
5.118012152777777857e+01 5.501629577020202078e+01 6.940407986111111427e+01
5.129277146464646364e+01 5.518529040404040131e+01 6.952035984848484418e+01
5.136474116161615910e+01 5.535400883838384090e+01 6.961300505050505194e+01
5.149183238636363313e+01 5.555007102272727337e+01 6.972526041666667140e+01
5.153993055555555713e+01 5.569412878787878896e+01 6.979608585858585457e+01
5.163829703282828376e+01 5.585262784090909349e+01 6.989334753787878185e+01
5.169681186868687206e+01 5.599684343434343248e+01 6.997490530303029743e+01
5.178038194444444287e+01 5.615269886363636687e+01 7.009225063131313505e+01
5.176897885101010388e+01 5.616086647727272663e+01 7.005464804292928704e+01
5.124502840909090651e+01 5.539023042929292728e+01 6.941627209595959869e+01
5.056979955808080973e+01 5.418880208333333570e+01 6.856790561868686495e+01
5.009820864898989612e+01 5.332264046717171624e+01 6.804754577020202078e+01
4.986470170454545325e+01 5.284876104797979934e+01 6.783471433080808310e+01
4.984390782828283051e+01 5.266540404040404155e+01 6.777619949494949481e+01
4.984655145202020066e+01 5.259812973484848442e+01 6.780299084595959869e+01
4.980425347222222143e+01 5.248528251262626299e+01 6.773780776515151558e+01
4.977035984848485128e+01 5.243939393939393767e+01 6.770170454545454675e+01
4.979115372474747403e+01 5.240668402777777857e+01 6.767404513888888573e+01
4.985606060606060908e+01 5.243150252525252597e+01 6.771732954545454675e+01
4.977485795454545325e+01 5.236040088383838054e+01 6.766358901515151558e+01
4.969093276515151558e+01 5.223212594696969546e+01 6.757997948232323893e+01
4.965557922979797922e+01 5.214752998737373701e+01 6.752900094696970257e+01
4.966445707070707272e+01 5.215388257575757791e+01 6.753914141414141170e+01
4.973307291666666430e+01 5.224554135101010388e+01 6.761785827020202078e+01
4.990068655303030454e+01 5.244740372474747403e+01 6.778657670454545325e+01
4.997810132575757791e+01 5.262330334595959869e+01 6.789950284090909349e+01
5.004912405303030454e+01 5.282895359848485128e+01 6.804202178030303116e+01
5.016130050505050519e+01 5.303724747474747403e+01 6.818386994949494806e+01
5.022620738636363313e+01 5.316607481060606233e+01 6.827371369949494806e+01
5.032729640151514872e+01 5.330772569444444287e+01 6.838348327020202078e+01
5.038005050505050519e+01 5.345075757575757791e+01 6.844696969696970257e+01
5.046421243686868507e+01 5.360010258838384090e+01 6.853381470959595845e+01
5.048559816919191690e+01 5.372044665404040131e+01 6.860239109848484418e+01
5.059343434343434609e+01 5.390530303030303116e+01 6.869902146464646364e+01
5.067013888888888573e+01 5.404545454545454675e+01 6.880176767676768179e+01
5.076696654040404155e+01 5.420588699494949481e+01 6.889780618686869218e+01
5.089137468434343248e+01 5.439342645202020066e+01 6.902931660353534937e+01
5.095726799242424221e+01 5.455433238636363313e+01 6.910673137626262985e+01
5.103393308080808310e+01 5.472601010101010388e+01 6.923800505050505194e+01
5.113963857323232531e+01 5.492325599747474740e+01 6.935696811868686495e+01
5.122849589646464352e+01 5.508913352272727337e+01 6.941362847222222854e+01
5.128006628787878896e+01 5.524060921717171624e+01 6.950986426767676107e+01
5.130322758838384090e+01 5.534031723484848442e+01 6.957611268939393767e+01
5.151132417929292728e+01 5.558897569444444287e+01 6.974254261363635976e+01
5.157181186868687206e+01 5.577761994949494806e+01 6.987279040404040131e+01
5.166891571969696884e+01 5.594606218434343248e+01 6.997889046717172334e+01
5.172005208333333570e+01 5.608652935606060908e+01 7.005038667929292728e+01
5.181443339646464352e+01 5.624230587121212466e+01 7.014950284090909349e+01
5.185610006313131493e+01 5.643627683080808310e+01 7.021247632575757791e+01
5.194917929292929415e+01 5.655208333333333570e+01 7.031518308080808310e+01
5.208167613636363313e+01 5.673887310606060908e+01 7.045020517676768179e+01
5.200508996212121104e+01 5.665044981060606233e+01 7.033810763888888573e+01
5.133392518939393767e+01 5.563379892676767469e+01 6.948528251262625588e+01
5.068675031565656752e+01 5.444527304292929415e+01 6.869606218434343248e+01
5.023804450757575779e+01 5.364997632575757791e+01 6.820237531565656752e+01
5.007599431818182012e+01 5.322419507575757791e+01 6.804695391414141170e+01
5.010112847222222143e+01 5.309118529040404155e+01 6.805520044191919737e+01
5.007678345959595845e+01 5.300828598484848442e+01 6.803243371212121815e+01
4.997865372474747403e+01 5.290699968434343248e+01 6.798607165404040131e+01
4.999360795454545325e+01 5.282015467171716949e+01 6.794925820707071296e+01
4.999719854797979934e+01 5.281916824494949481e+01 6.798157354797979224e+01
5.001444128787878896e+01 5.281573547979797922e+01 6.797719381313130782e+01
4.996030618686868507e+01 5.271125315656565391e+01 6.790443497474747403e+01
4.984915561868687206e+01 5.255212279040404155e+01 6.777860637626262985e+01
4.979154829545454675e+01 5.246863162878787534e+01 6.773678188131313505e+01
4.981695864898989612e+01 5.246373895202020066e+01 6.775430082070707272e+01
4.989445233585858830e+01 5.256474905303030454e+01 6.784173768939393767e+01
5.000351167929292728e+01 5.271358112373737725e+01 6.794937657828282340e+01
5.009055397727272663e+01 5.289216382575757791e+01 6.806214488636364024e+01
5.020099431818182012e+01 5.307741477272727337e+01 6.819752209595959869e+01
5.027817234848485128e+01 5.326223169191919027e+01 6.833104482323231821e+01
5.036738478535353636e+01 5.341252367424242209e+01 6.841331281565656752e+01
5.045501893939393767e+01 5.356328914141413833e+01 6.854655934343433898e+01
5.049644886363636687e+01 5.368884154040404155e+01 6.858672664141414543e+01
5.056687973484848442e+01 5.384734059343434609e+01 6.866725852272726627e+01
5.062235637626262275e+01 5.398962279040404155e+01 6.875698390151515582e+01
5.067724116161615910e+01 5.412894570707070585e+01 6.883238636363635976e+01
5.074419981060606233e+01 5.426613794191919027e+01 6.892270359848484418e+01
5.083692392676767469e+01 5.440179135101010388e+01 6.903783933080808310e+01
5.089551767676767469e+01 5.455744949494949481e+01 6.907102272727273373e+01
5.099360795454545325e+01 5.473619002525252597e+01 6.920304608585858830e+01
5.108921243686868507e+01 5.488750789141413833e+01 6.929170612373737015e+01
5.123330965909090651e+01 5.507453440656565391e+01 6.942538667929292728e+01
5.126878156565656752e+01 5.522743055555555713e+01 6.952840909090909349e+01
5.134544665404040131e+01 5.538648200757575779e+01 6.962401357323231821e+01
5.149948705808080973e+01 5.556561710858586167e+01 6.973607165404040131e+01
5.156676136363636687e+01 5.573295454545454675e+01 6.985937500000000000e+01
5.159086963383838054e+01 5.585996685606060908e+01 6.989374210858585457e+01
5.170012626262626299e+01 5.605934343434343248e+01 7.003314393939393767e+01
5.175145991161615910e+01 5.617017834595959869e+01 7.008510890151515582e+01
5.180078125000000000e+01 5.628184185606060908e+01 7.014926609848484418e+01
5.189713541666666430e+01 5.647857481060606233e+01 7.028286773989898961e+01
5.202544981060606233e+01 5.664318970959595845e+01 7.039539930555555713e+01
5.208495107323232531e+01 5.681080334595959869e+01 7.046957859848484418e+01
5.195920138888888573e+01 5.668142361111111427e+01 7.034761679292928704e+01
5.140897253787878896e+01 5.573725536616161946e+01 6.956080334595959869e+01
5.068071338383838054e+01 5.455003156565656752e+01 6.875726010101010388e+01
5.029119318181817988e+01 5.374747474747474740e+01 6.828156565656566102e+01
5.015348800505050519e+01 5.336797664141413833e+01 6.811987058080808310e+01
5.012239583333333570e+01 5.324202967171716949e+01 6.810945391414141170e+01
5.010282512626262275e+01 5.316216856060606233e+01 6.810945391414141170e+01
5.008676609848485128e+01 5.307066761363636687e+01 6.809828756313130782e+01
5.007907196969696884e+01 5.304971590909090651e+01 6.807970328282827666e+01
5.013099747474747403e+01 5.305934343434343248e+01 6.811521464646465063e+01
5.007690183080808310e+01 5.302592329545454675e+01 6.808495107323231821e+01
4.997912720959595845e+01 5.287811710858586167e+01 6.795845170454545325e+01
4.986201862373737725e+01 5.267846433080808310e+01 6.783076862373737015e+01
4.979987373737373701e+01 5.255145202020202078e+01 6.775268308080808310e+01
4.980220170454545325e+01 5.256214488636363313e+01 6.778042140151515582e+01
4.988671875000000000e+01 5.266370738636363313e+01 6.785136521464646364e+01
4.999996054292929415e+01 5.280630523989898961e+01 6.797186710858585457e+01
5.007788825757575779e+01 5.298792613636363313e+01 6.809240845959595845e+01
5.017065183080808310e+01 5.317333491161615910e+01 6.817254577020202078e+01
5.026961016414141170e+01 5.331064551767676818e+01 6.830638415404040131e+01
5.033905460858586167e+01 5.346657986111111427e+01 6.840913036616161946e+01
5.037653882575757791e+01 5.356324968434343248e+01 6.844203756313130782e+01
5.048011363636363313e+01 5.371212121212121104e+01 6.857007575757575069e+01
5.051357323232323182e+01 5.383222853535353636e+01 6.861126893939393767e+01
5.055598958333333570e+01 5.393635574494949481e+01 6.869582544191919737e+01
5.067230902777777857e+01 5.408187342171716949e+01 6.880141256313130782e+01
5.071141098484848442e+01 5.420209911616161946e+01 6.884019886363635976e+01
5.083546401515151558e+01 5.438012941919191690e+01 6.896172664141414543e+01
5.086829229797979934e+01 5.451175820707070585e+01 6.904947916666667140e+01
5.097498421717171624e+01 5.468521148989898961e+01 6.913360164141414543e+01
5.105563446969696884e+01 5.482883522727272663e+01 6.924850063131313505e+01
5.115080492424242209e+01 5.501838699494949481e+01 6.936024305555555713e+01
5.118189709595959869e+01 5.515980113636363313e+01 6.945778093434343248e+01
5.131695864898989612e+01 5.532122001262626299e+01 6.955543718434343248e+01
5.135728377525252597e+01 5.548891256313131493e+01 6.965336963383838054e+01
5.149293718434343248e+01 5.565297506313131493e+01 6.973488794191919737e+01
5.155228061868687206e+01 5.578491950757575779e+01 6.982579703282827666e+01
5.161639835858586167e+01 5.593410669191919027e+01 6.990364583333332860e+01
5.173346748737373701e+01 5.610247001262626299e+01 7.003886521464646364e+01
5.178819444444444287e+01 5.627130681818182012e+01 7.012436868686869218e+01
5.184142203282828376e+01 5.633668718434343248e+01 7.014413667929292728e+01
5.126290246212121104e+01 5.554904513888888573e+01 6.947975852272726627e+01
5.060874368686868507e+01 5.439993686868687206e+01 6.863368055555555713e+01
5.011710858585858830e+01 5.347506313131312794e+01 6.804150883838383379e+01
4.990285669191919027e+01 5.293268623737373701e+01 6.782299558080808310e+01
4.983270202020202078e+01 5.273248106060606233e+01 6.775000000000000000e+01
4.983499053030303116e+01 5.264086174242424221e+01 6.776317866161616621e+01
4.978748421717171624e+01 5.254379734848485128e+01 6.770857007575757791e+01
4.977734375000000000e+01 5.249404198232323182e+01 6.766986268939393767e+01
4.977051767676767469e+01 5.249700126262626299e+01 6.771922348484848442e+01
4.979348169191919027e+01 5.250954861111111427e+01 6.773082386363635976e+01
4.979951862373737725e+01 5.247155145202020066e+01 6.768162089646465063e+01
4.966544349747474740e+01 5.231253945707070585e+01 6.757185132575757791e+01
4.960491635101010388e+01 5.218304135101010388e+01 6.748117897727273373e+01
4.961722695707070585e+01 5.218809185606060908e+01 6.749996054292928704e+01
4.967763573232323182e+01 5.227485795454545325e+01 6.757410037878787534e+01
4.977477904040404155e+01 5.245817550505050519e+01 6.774053030303029743e+01
4.989559659090909349e+01 5.263675820707070585e+01 6.785708648989898961e+01
4.998954387626262275e+01 5.284686710858586167e+01 6.799001736111111427e+01
5.013008996212121104e+01 5.303886521464646364e+01 6.811588541666667140e+01
5.020458491161615910e+01 5.319700915404040131e+01 6.822241950757575069e+01
5.026526988636363313e+01 5.336107165404040131e+01 6.831403882575757791e+01
5.036485953282828376e+01 5.353925978535353636e+01 6.844045928030303116e+01
5.042605744949494806e+01 5.366579861111111427e+01 6.848492739898989612e+01
5.048603219696969546e+01 5.383104482323232531e+01 6.860408775252524549e+01
5.058179450757575779e+01 5.396294981060606233e+01 6.867491319444444287e+01
5.063040561868687206e+01 5.407895359848485128e+01 6.874751420454545325e+01
5.071575126262626299e+01 5.428835227272727337e+01 6.886395202020202078e+01
5.082370580808080973e+01 5.445470328282828376e+01 6.896748737373737015e+01
5.091449652777777857e+01 5.462172506313131493e+01 6.908384627525252597e+01
5.102990845959595845e+01 5.481289457070707272e+01 6.919547032828282340e+01
5.107027304292929415e+01 5.494653566919191690e+01 6.926503314393939092e+01
5.118315972222222143e+01 5.512507891414141170e+01 6.941769255050505194e+01
5.126751893939393767e+01 5.531265782828283051e+01 6.953046085858585457e+01
5.135775726010101039e+01 5.546634311868687206e+01 6.961138731060606233e+01
5.145095486111111427e+01 5.565913036616161946e+01 6.971089804292928704e+01
5.154071969696969546e+01 5.579750631313131493e+01 6.979813762626262985e+01
5.161399147727272663e+01 5.599735637626262275e+01 6.992870107323231821e+01
5.165048926767676818e+01 5.616453598484848442e+01 6.996788194444444287e+01
5.176152146464646364e+01 5.632086489898989612e+01 7.009485479797979224e+01
5.190802556818182012e+01 5.647336647727272663e+01 7.022115688131313505e+01
5.193000315656565391e+01 5.660250946969696884e+01 7.028290719696970257e+01
5.202197758838384090e+01 5.678981218434343248e+01 7.041260258838383379e+01
5.208147885101010388e+01 5.691212910353535648e+01 7.047762784090909349e+01
5.168446180555555713e+01 5.631908933080808310e+01 6.997423453282827666e+01
5.098504577020202078e+01 5.514397885101010388e+01 6.902466066919191690e+01
5.037456597222222143e+01 5.408621369949494806e+01 6.836935763888888573e+01
5.010172032828283051e+01 5.346156881313131493e+01 6.806178977272726627e+01
4.999187184343434609e+01 5.320935921717171624e+01 6.796993371212121815e+01
5.004182449494949481e+01 5.312673611111111427e+01 6.798800505050505194e+01
5.001716382575757791e+01 5.310523200757575779e+01 6.798054766414141170e+01
4.996969696969696884e+01 5.298768939393939092e+01 6.792913510101010388e+01
4.993402777777777857e+01 5.292676767676767469e+01 6.792897727272726627e+01
4.990830176767676818e+01 5.293844696969696884e+01 6.790277777777777146e+01
4.995580808080808310e+01 5.288115530303030454e+01 6.792234848484848442e+01
4.989847695707070585e+01 5.274127998737373701e+01 6.781924715909090651e+01
4.977197758838384090e+01 5.256080334595959869e+01 6.768943339646465063e+01
4.976424400252525260e+01 5.252529198232323182e+01 6.767964804292928704e+01
4.977781723484848442e+01 5.256727430555555713e+01 6.770016571969696884e+01
4.990230429292929415e+01 5.271543560606060908e+01 6.782528409090909349e+01
4.998259943181817988e+01 5.286817392676767469e+01 6.794077493686869218e+01
5.005748895202020066e+01 5.302324021464646364e+01 6.807216698232323893e+01
5.017120422979797922e+01 5.319866635101010388e+01 6.817925347222222854e+01
5.028046085858586167e+01 5.338162878787878896e+01 6.830271464646465063e+01
5.033337279040404155e+01 5.352513415404040131e+01 6.837645991161616621e+01
5.041611426767676818e+01 5.367163825757575779e+01 6.846077967171717660e+01
5.047841698232323182e+01 5.382421875000000000e+01 6.854217960858585457e+01
5.054924242424242209e+01 5.393702651515151558e+01 6.863699494949494806e+01
5.061221590909090651e+01 5.407828282828283051e+01 6.869649621212121815e+01
5.064311079545454675e+01 5.421555397727272663e+01 6.877552872474747403e+01
5.074313446969696884e+01 5.436797664141413833e+01 6.884951073232323893e+01
5.083526672979797922e+01 5.451613794191919027e+01 6.896026672979797922e+01
5.090325126262626299e+01 5.468750000000000000e+01 6.904198232323231821e+01
5.098634785353535648e+01 5.481052714646464352e+01 6.910724431818181301e+01
5.108234690656565391e+01 5.498670296717171624e+01 6.924806660353534937e+01
5.117223011363636687e+01 5.515265940656565391e+01 6.936036142676768179e+01
5.125919349747474740e+01 5.532942708333333570e+01 6.948709753787878185e+01
5.133120265151514872e+01 5.547561553030303116e+01 6.955042613636364024e+01
5.141615372474747403e+01 5.564642518939393767e+01 6.966899463383838054e+01
5.149483112373737725e+01 5.578823390151514872e+01 6.973567708333332860e+01
5.155634469696969546e+01 5.596543560606060908e+01 6.983364898989898961e+01
5.163841540404040131e+01 5.612026515151514872e+01 6.992929292929292728e+01
5.170091540404040131e+01 5.624479166666666430e+01 7.001089015151515582e+01
5.184595959595959869e+01 5.641792929292929415e+01 7.015025252525252597e+01
5.191856060606060908e+01 5.659059343434343248e+01 7.026672979797979224e+01
5.191938920454545325e+01 5.663924400252525260e+01 7.025114425505050519e+01
5.134848484848485128e+01 5.582039141414141170e+01 6.954229797979797922e+01
5.068667140151514872e+01 5.463111584595959869e+01 6.867294034090909349e+01
5.013565340909090651e+01 5.368205492424242209e+01 6.804569128787878185e+01
4.990321180555555713e+01 5.315400094696969546e+01 6.778736584595959869e+01
4.983680555555555713e+01 5.293781565656565391e+01 6.773390151515151558e+01
4.986493844696969546e+01 5.288924400252525260e+01 6.772778566919191690e+01
4.983199179292929415e+01 5.280800189393939092e+01 6.772261679292928704e+01
4.978140782828283051e+01 5.269665404040404155e+01 6.770107323232323893e+01
4.981403882575757791e+01 5.268604008838384090e+01 6.772612847222222854e+01
4.983428030303030454e+01 5.269649621212121104e+01 6.770438762626262985e+01
4.977051767676767469e+01 5.261158459595959869e+01 6.764220328282827666e+01
4.960022095959595845e+01 5.238952020202020066e+01 6.746243686868686495e+01
4.953065814393939092e+01 5.224577809343434609e+01 6.742080965909090651e+01
4.954162720959595845e+01 5.221350220959595845e+01 6.742404513888888573e+01
4.958112373737373701e+01 5.226499368686868507e+01 6.745107323232323893e+01
4.967057291666666430e+01 5.240668402777777857e+01 6.752915877525252597e+01
4.978140782828283051e+01 5.257354797979797922e+01 6.771070075757575069e+01
4.989859532828283051e+01 5.276523042929292728e+01 6.784098800505050519e+01
4.998764993686868507e+01 5.294282670454545325e+01 6.795939867424242209e+01
5.003010574494949481e+01 5.308297821969696884e+01 6.801195549242424931e+01
5.011876578282828376e+01 5.321630366161615910e+01 6.810645517676768179e+01
5.016690340909090651e+01 5.334351325757575779e+01 6.817353219696970257e+01
5.021890782828283051e+01 5.345675505050505194e+01 6.824195075757575069e+01
5.031506470959595845e+01 5.358463541666666430e+01 6.830969854797979224e+01
5.036130839646464352e+01 5.372778566919191690e+01 6.840802556818181301e+01
5.043781565656565391e+01 5.387736742424242209e+01 6.850647095959595845e+01
5.055973800505050519e+01 5.404758522727272663e+01 6.859651199494949481e+01
5.064409722222222143e+01 5.418923611111111427e+01 6.870359848484848442e+01
5.070643939393939092e+01 5.435416666666666430e+01 6.883380681818181301e+01
5.077809343434343248e+01 5.446875000000000000e+01 6.889867424242424931e+01
5.085554766414141170e+01 5.464800347222222143e+01 6.896871054292928704e+01
5.096878945707070585e+01 5.480843592171716949e+01 6.907563920454545325e+01
5.106431502525252597e+01 5.497971906565656752e+01 6.919136679292928704e+01
5.114662247474747403e+01 5.515782828282828376e+01 6.929419191919191690e+01
5.126116635101010388e+01 5.534986584595959869e+01 6.943635574494949481e+01
5.130591066919191690e+01 5.550714172979797922e+01 6.953381470959595845e+01
5.138439078282828376e+01 5.565774936868687206e+01 6.957899305555555713e+01
5.146657986111111427e+01 5.577939551767676818e+01 6.966733743686869218e+01
5.154588857323232531e+01 5.593872316919191690e+01 6.978468276515151558e+01
5.164689867424242209e+01 5.611422821969696884e+01 6.990068655303029743e+01
5.160629734848485128e+01 5.612902462121212466e+01 6.986639835858585457e+01
5.109994476010101039e+01 5.533305713383838054e+01 6.917159880050505194e+01
5.040976167929292728e+01 5.415123895202020066e+01 6.831253945707071296e+01
4.988865214646464352e+01 5.320241477272727337e+01 6.771819760101010388e+01
4.961671401515151558e+01 5.271882891414141170e+01 6.747009154040404155e+01
4.960389046717171624e+01 5.244574652777777857e+01 6.739792455808080263e+01
4.960089172979797922e+01 5.240676294191919027e+01 6.743895991161616621e+01
4.957978219696969546e+01 5.232709911616161946e+01 6.740806502525252597e+01
4.955942234848485128e+01 5.225623421717171624e+01 6.738091856060606233e+01
4.957686237373737725e+01 5.224857954545454675e+01 6.740388257575757791e+01
4.955642361111111427e+01 5.224629103535353636e+01 6.738959911616161946e+01
4.950071022727272663e+01 5.215206755050505194e+01 6.730926452020202078e+01
4.939528093434343248e+01 5.198887310606060908e+01 6.720667613636364024e+01
4.935846748737373701e+01 5.188056344696969546e+01 6.714303188131313505e+01
4.931806344696969546e+01 5.185104955808080973e+01 6.710136521464646364e+01
4.940439551767676818e+01 5.192949021464646364e+01 6.719543087121212466e+01
4.953886521464646364e+01 5.211478061868687206e+01 6.735467960858585457e+01
4.963478535353535648e+01 5.228803661616161946e+01 6.746575126262625588e+01
4.970529513888888573e+01 5.248764993686868507e+01 6.757587594696970257e+01
4.981064551767676818e+01 5.264887152777777857e+01 6.769874526515151558e+01
4.989299242424242209e+01 5.284990530303030454e+01 6.780160984848484418e+01
5.000102588383838054e+01 5.302659406565656752e+01 6.791927083333332860e+01
5.004494160353535648e+01 5.314500473484848442e+01 6.798938604797979224e+01
5.012823547979797922e+01 5.326917613636363313e+01 6.806794507575757791e+01
5.014614898989898961e+01 5.344034090909090651e+01 6.814867424242424931e+01
5.026866319444444287e+01 5.358147885101010388e+01 6.825903566919191690e+01
5.032769097222222143e+01 5.374577809343434609e+01 6.833668718434343248e+01
5.048871527777777857e+01 5.393426452020202078e+01 6.847372159090909349e+01
5.052387152777777857e+01 5.406380208333333570e+01 6.856348642676768179e+01
5.064378156565656752e+01 5.423374368686868507e+01 6.867124368686869218e+01
5.066540404040404155e+01 5.439835858585858830e+01 6.873895202020202078e+01
5.080476641414141170e+01 5.457528409090909349e+01 6.886663510101010388e+01
5.089488636363636687e+01 5.474258207070707272e+01 6.898863636363635976e+01
5.096362058080808310e+01 5.491390467171716949e+01 6.905042613636364024e+01
5.104841382575757791e+01 5.511770044191919027e+01 6.921002998737374412e+01
5.121010890151514872e+01 5.527623895202020066e+01 6.932390309343433898e+01
5.122174873737373701e+01 5.544207702020202078e+01 6.936584595959595845e+01
5.132425820707070585e+01 5.558167613636363313e+01 6.946882891414141170e+01
5.141240530303030454e+01 5.578172348484848442e+01 6.958680555555555713e+01
5.152296401515151558e+01 5.589259785353535648e+01 6.968331755050505194e+01
5.160507417929292728e+01 5.608139993686868507e+01 6.978736584595959869e+01
5.166090593434343248e+01 5.623682133838384090e+01 6.988660037878787534e+01
5.171693497474747403e+01 5.635629734848485128e+01 6.997182765151515582e+01
5.128843118686868507e+01 5.574676452020202078e+01 6.941137941919191690e+01
5.058021622474747403e+01 5.459031723484848442e+01 6.848693970959595845e+01
5.004482323232323182e+01 5.360274621212121104e+01 6.785400883838383379e+01
4.983128156565656752e+01 5.306976010101010388e+01 6.757607323232323893e+01
4.973824179292929415e+01 5.286008522727272663e+01 6.754174558080808310e+01
4.970123106060606233e+01 5.276846590909090651e+01 6.751688762626262985e+01
4.972679924242424221e+01 5.273137626262626299e+01 6.751089015151515582e+01
4.968781565656565391e+01 5.263620580808080973e+01 6.747506313131313505e+01
4.968055555555555713e+01 5.260069444444444287e+01 6.749684343434343248e+01
4.966382575757575779e+01 5.264141414141413833e+01 6.753882575757575069e+01
4.963794191919191690e+01 5.256549873737373701e+01 6.745533459595959869e+01
4.947391887626262275e+01 5.235523200757575779e+01 6.733471433080808310e+01
4.946231849747474740e+01 5.225193339646464352e+01 6.724183238636364024e+01
4.944377367424242209e+01 5.220924084595959869e+01 6.721444917929292728e+01
4.948401988636363313e+01 5.228057922979797922e+01 6.727758049242424931e+01
4.953539299242424221e+01 5.235862531565656752e+01 6.737630208333332860e+01
4.967546559343434609e+01 5.255488478535353636e+01 6.749901357323231821e+01
4.975927241161615910e+01 5.269661458333333570e+01 6.761470170454545325e+01
4.978053977272727337e+01 5.285550820707070585e+01 6.769499684343433898e+01
4.988198390151514872e+01 5.301077178030303116e+01 6.781127683080808310e+01
4.997387941919191690e+01 5.316169507575757791e+01 6.788944128787878185e+01
5.002608112373737725e+01 5.329928188131312794e+01 6.798330965909090651e+01
5.016564078282828376e+01 5.347261679292929415e+01 6.806021148989898961e+01
5.018588226010101039e+01 5.358076862373737725e+01 6.813364109848484418e+01
5.020762310606060908e+01 5.371377840909090651e+01 6.817810921717172334e+01
5.029754577020202078e+01 5.384994476010101039e+01 6.826219223484848442e+01
5.038880997474747403e+01 5.398761047979797922e+01 6.837902462121212466e+01
5.048646622474747403e+01 5.414429450757575779e+01 6.847873263888888573e+01
5.052801452020202078e+01 5.427738320707070585e+01 6.853827335858585457e+01
5.058333333333333570e+01 5.439188762626262275e+01 6.861852904040404155e+01
5.070864898989898961e+01 5.457244318181817988e+01 6.875063131313130782e+01
5.079099589646464352e+01 5.477868529040404155e+01 6.886264993686869218e+01
5.090368529040404155e+01 5.492846433080808310e+01 6.896555397727273373e+01
5.099364741161615910e+01 5.510033933080808310e+01 6.908203125000000000e+01
5.109390782828283051e+01 5.526199494949494806e+01 6.915309343434343248e+01
5.112164614898989612e+01 5.537480271464646364e+01 6.921381786616161946e+01
5.121480429292929415e+01 5.551609848484848442e+01 6.932749368686869218e+01
5.124222695707070585e+01 5.567909564393939092e+01 6.942562342171717660e+01
5.138020833333333570e+01 5.584248737373737725e+01 6.953819444444444287e+01
5.152170138888888573e+01 5.601633522727272663e+01 6.965411931818181301e+01
5.149617266414141170e+01 5.608866003787878896e+01 6.968998579545454675e+01
5.155417455808080973e+01 5.618706597222222143e+01 6.975272253787878185e+01
5.124814551767676818e+01 5.575240688131312794e+01 6.933368844696970257e+01
5.053121054292929415e+01 5.467846433080808310e+01 6.843793402777777146e+01
5.006092171717171624e+01 5.375331439393939092e+01 6.783001893939393767e+01
4.974021464646464352e+01 5.315151515151514872e+01 6.751941287878787534e+01
4.960282512626262275e+01 5.288691603535353636e+01 6.736955492424242209e+01
4.957342960858586167e+01 5.277608112373737725e+01 6.732784880050505194e+01
4.961051925505050519e+01 5.272526041666666430e+01 6.736099273989898961e+01
4.956269728535353636e+01 5.264634627525252597e+01 6.734615688131313505e+01
4.956881313131312794e+01 5.259122474747474740e+01 6.734422348484848442e+01
4.954423137626262275e+01 5.259268465909090651e+01 6.733416193181818699e+01
4.953633996212121104e+01 5.249830334595959869e+01 6.728286773989898961e+01
4.941315498737373701e+01 5.236564867424242209e+01 6.714184816919191690e+01
4.933530618686868507e+01 5.219057765151514872e+01 6.708057133838383379e+01
4.926783459595959869e+01 5.216098484848485128e+01 6.703030303030303116e+01
4.936979166666666430e+01 5.222885101010101039e+01 6.709201388888888573e+01
4.949159564393939092e+01 5.239074337121212466e+01 6.720829387626262985e+01
4.961047979797979934e+01 5.258096590909090651e+01 6.735669191919191690e+01
4.966500946969696884e+01 5.273398042929292728e+01 6.747245896464646364e+01
4.980638415404040131e+01 5.295947758838384090e+01 6.762882733585858830e+01
4.988514046717171624e+01 5.314603061868687206e+01 6.771910511363635976e+01
5.003302556818182012e+01 5.333337279040404155e+01 6.787819602272726627e+01
5.009493371212121104e+01 5.352043876262626299e+01 6.798177083333332860e+01
5.019243213383838054e+01 5.365755208333333570e+01 6.806680082070707272e+01
5.024581755050505194e+01 5.384146148989898961e+01 6.820241477272726627e+01
5.029655934343434609e+01 5.396654040404040131e+01 6.824763257575757791e+01
5.039023042929292728e+01 5.410819128787878896e+01 6.833593750000000000e+01
5.047072285353535648e+01 5.425797032828283051e+01 6.844610164141414543e+01
5.052690972222222143e+01 5.440490845959595845e+01 6.850402462121212466e+01
5.063249684343434609e+01 5.454648042929292728e+01 6.863170770202020776e+01
5.073094223484848442e+01 5.473551925505050519e+01 6.874088541666667140e+01
5.084726167929292728e+01 5.491228693181817988e+01 6.887062026515151558e+01
5.088253630050505194e+01 5.502900094696969546e+01 6.892909564393939092e+01
5.096180555555555713e+01 5.514204545454545325e+01 6.897427398989898961e+01
5.101207386363636687e+01 5.529237689393939092e+01 6.905879103535353636e+01
5.115463226010101039e+01 5.547139362373737725e+01 6.921176609848484418e+01
5.119570707070707272e+01 5.562136994949494806e+01 6.929861111111111427e+01
5.136454387626262275e+01 5.583818655303030454e+01 6.945924084595959869e+01
5.138060290404040131e+01 5.597940340909090651e+01 6.954505997474747403e+01
5.145434816919191690e+01 5.609371054292929415e+01 6.961533301767676107e+01
5.145825441919191690e+01 5.616627209595959869e+01 6.965033143939393767e+01
5.117941130050505194e+01 5.574080650252525260e+01 6.926148200757575069e+01
5.054075915404040131e+01 5.474041193181817988e+01 6.841749526515151558e+01
5.000528724747474740e+01 5.377769886363636687e+01 6.773839962121212466e+01
4.973011363636363313e+01 5.320754419191919027e+01 6.744333964646465063e+01
4.961556976010101039e+01 5.297305082070707272e+01 6.734883996212121815e+01
4.961541193181817988e+01 5.289776672979797922e+01 6.735026041666667140e+01
4.963151041666666430e+01 5.284568339646464352e+01 6.735310132575757791e+01
4.963833648989898961e+01 5.279932133838384090e+01 6.735898042929292728e+01
4.966130050505050519e+01 5.282181186868687206e+01 6.739251893939393767e+01
4.968860479797979934e+01 5.288336489898989612e+01 6.744902146464646364e+01
4.963794191919191690e+01 5.280113636363636687e+01 6.739883207070707272e+01
4.950185448232323182e+01 5.261391256313131493e+01 6.723828125000000000e+01
4.944831123737373701e+01 5.248619002525252597e+01 6.718063446969696884e+01
4.947368213383838054e+01 5.244574652777777857e+01 6.718091066919191690e+01
4.947526041666666430e+01 5.249782986111111427e+01 6.723378314393939092e+01
4.958057133838384090e+01 5.267116477272727337e+01 6.736608270202020776e+01
4.967862215909090651e+01 5.283092645202020066e+01 6.747723327020202078e+01
4.976601957070707272e+01 5.299897411616161946e+01 6.760976957070707272e+01
4.985144412878787534e+01 5.313869160353535648e+01 6.770734690656566102e+01
4.993781565656565391e+01 5.330823863636363313e+01 6.780224116161616621e+01
4.999988162878787534e+01 5.344290561868687206e+01 6.788719223484848442e+01
5.011336016414141170e+01 5.361130839646464352e+01 6.800619476010101039e+01
5.018039772727272663e+01 5.376578282828283051e+01 6.808191287878787534e+01
5.027209595959595845e+01 5.392676767676767469e+01 6.819491792929292728e+01
5.035511363636363313e+01 5.405744949494949481e+01 6.827872474747475451e+01
5.041153724747474740e+01 5.419799558080808310e+01 6.834887941919191690e+01
5.050619476010101039e+01 5.437251420454545325e+01 6.844811395202020776e+01
5.062350063131312794e+01 5.456794507575757791e+01 6.859446022727273373e+01
5.069622001262626299e+01 5.471579071969696884e+01 6.869053819444444287e+01
5.077331912878787534e+01 5.488127367424242209e+01 6.877616003787878185e+01
5.089425505050505194e+01 5.506281565656565391e+01 6.889835858585858830e+01
5.094416824494949481e+01 5.520789930555555713e+01 6.897589172979797922e+01
5.106833964646464352e+01 5.539977904040404155e+01 6.910464015151515582e+01
5.122482638888888573e+01 5.560298295454545325e+01 6.927643623737374412e+01
5.125197285353535648e+01 5.581068497474747403e+01 6.941248421717172334e+01
5.130496369949494806e+01 5.595190183080808310e+01 6.948157354797979224e+01
5.139871369949494806e+01 5.611430713383838054e+01 6.958637152777777146e+01
5.147265625000000000e+01 5.624317392676767469e+01 6.968272569444444287e+01
5.159209280303030454e+01 5.638912563131312794e+01 6.979190340909090651e+01
5.176838699494949481e+01 5.664401830808080973e+01 6.998003472222222854e+01
5.160483743686868507e+01 5.649388415404040131e+01 6.981238162878787534e+01
5.083842329545454675e+01 5.542491319444444287e+01 6.885325915404040131e+01
5.019795612373737725e+01 5.425966698232323182e+01 6.795853061868686495e+01
4.974601483585858830e+01 5.346981534090909349e+01 6.750217013888888573e+01
4.960191761363636687e+01 5.308329387626262275e+01 6.731814236111111427e+01
4.962626262626262275e+01 5.299715909090909349e+01 6.734106691919191690e+01
4.965676294191919027e+01 5.297589172979797922e+01 6.740123895202020776e+01
4.959990530303030454e+01 5.285953282828283051e+01 6.734990530303029743e+01
4.952651515151514872e+01 5.275205176767676818e+01 6.727982954545454675e+01
4.950197285353535648e+01 5.274487058080808310e+01 6.730137310606060908e+01
4.955981691919191690e+01 5.274005681818182012e+01 6.730713383838383379e+01
4.952047821969696884e+01 5.266189236111111427e+01 6.727252998737374412e+01
4.942049400252525260e+01 5.249483112373737725e+01 6.715344854797979224e+01
4.930756786616161946e+01 5.238521938131312794e+01 6.705693655303029743e+01
4.935408775252525260e+01 5.234809027777777857e+01 6.706573547979797922e+01
4.942045454545454675e+01 5.244049873737373701e+01 6.716871843434343248e+01
4.951787405303030454e+01 5.260578440656565391e+01 6.729770359848484418e+01
4.963170770202020066e+01 5.281778724747474740e+01 6.742716224747475451e+01
4.967889835858586167e+01 5.293205492424242209e+01 6.747892992424242209e+01
4.976724273989898961e+01 5.315471117424242209e+01 6.763529829545454675e+01
4.994618055555555713e+01 5.330871212121212466e+01 6.775868055555555713e+01
4.993734217171716949e+01 5.343844696969696884e+01 6.782023358585858830e+01
5.007019412878787534e+01 5.363222064393939092e+01 6.795087594696970257e+01
5.011328125000000000e+01 5.374096433080808310e+01 6.800501104797979224e+01
5.020754419191919027e+01 5.387373737373737725e+01 6.808948863636364024e+01
5.024652777777777857e+01 5.400378787878787534e+01 6.817124368686869218e+01
5.029233743686868507e+01 5.418722380050505194e+01 6.824562026515151558e+01
5.040131786616161946e+01 5.434181660353535648e+01 6.836975220959595845e+01
5.051384943181817988e+01 5.449648832070707272e+01 6.844377367424242209e+01
5.058096590909090651e+01 5.467077020202020066e+01 6.857875631313130782e+01
5.066915246212121104e+01 5.484371054292929415e+01 6.867941130050505194e+01
5.081332859848485128e+01 5.502292455808080973e+01 6.881553819444444287e+01
5.094985006313131493e+01 5.524877683080808310e+01 6.899925031565656752e+01
5.103472222222222143e+01 5.543939393939393767e+01 6.911521464646465063e+01
5.114330808080808310e+01 5.559217171717171624e+01 6.922395833333332860e+01
5.120959595959595845e+01 5.574368686868687206e+01 6.931944444444444287e+01
5.126223169191919027e+01 5.591248421717171624e+01 6.944625946969696884e+01
5.136497790404040131e+01 5.608483270202020066e+01 6.957299558080808310e+01
5.148019255050505194e+01 5.625291982323232531e+01 6.966500946969696884e+01
5.153618213383838054e+01 5.640455334595959869e+01 6.977860637626262985e+01
5.161438604797979934e+01 5.650153882575757791e+01 6.982256155303029743e+01
5.165254103535353636e+01 5.663770517676767469e+01 6.990033143939393767e+01
5.121689551767676818e+01 5.605780460858586167e+01 6.936383364898989612e+01
5.054328440656565391e+01 5.489902935606060908e+01 6.840897253787878185e+01
4.998165246212121104e+01 5.388332544191919027e+01 6.772770675505050519e+01
