5.189859532828283051e+01 5.930421401515151558e+01 7.088265467171717660e+01
5.203744476010101039e+01 5.945395359848485128e+01 7.100256470959595845e+01
5.205835700757575779e+01 5.965400094696969546e+01 7.103626104797979224e+01
5.210629734848485128e+01 5.969704861111111427e+01 7.108483270202020776e+01
5.164579387626262275e+01 5.919977114898989612e+01 7.074522569444444287e+01
5.120683396464646364e+01 5.832599431818182012e+01 7.014417613636364024e+01
5.084067234848485128e+01 5.777769886363636687e+01 6.984193497474747403e+01
5.099562026515151558e+01 5.749514678030303116e+01 6.976550662878787534e+01
5.093051609848485128e+01 5.738711332070707272e+01 6.973054766414141170e+01
5.087819602272727337e+01 5.726818970959595845e+01 6.969148516414141170e+01
5.081774779040404155e+01 5.719590435606060908e+01 6.963529829545454675e+01
5.088892834595959869e+01 5.726014046717171624e+01 6.970048137626262985e+01
5.098106060606060908e+01 5.740230429292929415e+01 6.982054924242424931e+01
5.101262626262626299e+01 5.746401515151514872e+01 6.986079545454545325e+01
5.099743529040404155e+01 5.748907039141413833e+01 6.986312342171717660e+01
5.098323074494949481e+01 5.748244160353535648e+01 6.985033933080808310e+01
5.103322285353535648e+01 5.759256628787878896e+01 6.993458017676768179e+01
5.114859532828283051e+01 5.774092487373737725e+01 7.006084280303029743e+01
5.123299400252525260e+01 5.790265940656565391e+01 7.015834122474747403e+01
5.130587121212121104e+01 5.803661616161615910e+01 7.021906565656566102e+01
5.143576388888888573e+01 5.826025883838384090e+01 7.034927398989898961e+01
5.143828914141413833e+01 5.837799873737373701e+01 7.040656565656566102e+01
5.155042613636363313e+01 5.853448547979797922e+01 7.051380997474747403e+01
5.162669665404040131e+01 5.867499210858586167e+01 7.058613478535353636e+01
5.166370738636363313e+01 5.883747632575757791e+01 7.066339172979797922e+01
5.177343750000000000e+01 5.903180239898989612e+01 7.078464330808080263e+01
5.179529671717171624e+01 5.914109848484848442e+01 7.081281565656566102e+01
5.194503630050505194e+01 5.933976483585858830e+01 7.090589488636364024e+01
5.195750473484848442e+01 5.951274463383838054e+01 7.096523832070707272e+01
5.199759311868687206e+01 5.967388731060606233e+01 7.103783933080808310e+01
5.212377683080808310e+01 5.990392203282828376e+01 7.115723642676768179e+01
5.177647569444444287e+01 5.964500473484848442e+01 7.085696811868686495e+01
5.151976799242424221e+01 5.924435763888888573e+01 7.053949652777777146e+01
5.107571811868687206e+01 5.848686079545454675e+01 7.004794034090909349e+01
5.089484690656565391e+01 5.798275726010101039e+01 6.976526988636364024e+01
5.085732323232323182e+01 5.785874368686868507e+01 6.975852272727273373e+01
5.086620107323232531e+01 5.776092960858586167e+01 6.975524779040404155e+01
5.082796717171716949e+01 5.768402777777777857e+01 6.973248106060606233e+01
5.077817234848485128e+01 5.756668244949494806e+01 6.968394886363635976e+01
5.082398200757575779e+01 5.764484690656565391e+01 6.974790877525252597e+01
5.087405303030303116e+01 5.774337121212121104e+01 6.981186868686869218e+01
5.087665719696969546e+01 5.779269255050505194e+01 6.985298295454545325e+01
5.086059816919191690e+01 5.777868529040404155e+01 6.983155776515151558e+01
5.085633680555555713e+01 5.779683554292929415e+01 6.983692392676768179e+01
5.090254103535353636e+01 5.787444760101010388e+01 6.988802083333332860e+01
5.093734217171716949e+01 5.795801767676767469e+01 6.991777146464646364e+01
5.107114109848485128e+01 5.811201862373737725e+01 7.002521306818181301e+01
5.111379419191919027e+01 5.822458964646464352e+01 7.007181186868686495e+01
5.118288352272727337e+01 5.839879261363636687e+01 7.019377367424242209e+01
5.126763731060606233e+01 5.852758049242424221e+01 7.023859690656566102e+01
5.131684027777777857e+01 5.865411931818182012e+01 7.030579229797979224e+01
5.134201388888888573e+01 5.879040404040404155e+01 7.037073863636364024e+01
5.136103219696969546e+01 5.887050189393939092e+01 7.035392992424242209e+01
5.148524305555555713e+01 5.904363952020202078e+01 7.050260416666667140e+01
5.152343750000000000e+01 5.917826704545454675e+01 7.049881628787878185e+01
5.163813920454545325e+01 5.934284248737373701e+01 7.058810763888888573e+01
5.169369476010101039e+01 5.952955334595959869e+01 7.068185763888888573e+01
5.174191130050505194e+01 5.963979640151514872e+01 7.075090751262625588e+01
5.165147569444444287e+01 5.952442392676767469e+01 7.058534564393939092e+01
5.120422979797979934e+01 5.877761994949494806e+01 7.005587121212121815e+01
5.089145359848485128e+01 5.811541193181817988e+01 6.966639046717172334e+01
5.074502840909090651e+01 5.776112689393939092e+01 6.953559027777777146e+01
5.066228693181817988e+01 5.758068970959595845e+01 6.945884627525252597e+01
5.061466224747474740e+01 5.745083648989898961e+01 6.942290088383838054e+01
5.046448863636363313e+01 5.724416035353535648e+01 6.930508207070707272e+01
5.050816761363636687e+01 5.720971433080808310e+01 6.933218907828282340e+01
5.051128472222222143e+01 5.721803977272727337e+01 6.934509154040404155e+01
5.055571338383838054e+01 5.728235479797979934e+01 6.939457070707071296e+01
5.055405618686868507e+01 5.726096906565656752e+01 6.938565340909090651e+01
5.054438920454545325e+01 5.724767203282828376e+01 6.936762152777777146e+01
5.056912878787878896e+01 5.723121843434343248e+01 6.935243055555555713e+01
5.056632733585858830e+01 5.725366950757575779e+01 6.939287405303029743e+01
5.065605271464646364e+01 5.735681029040404155e+01 6.946302872474747403e+01
5.066504892676767469e+01 5.741583806818182012e+01 6.949522569444444287e+01
5.065325126262626299e+01 5.752825126262626299e+01 6.956628787878787534e+01
5.075134154040404155e+01 5.762034406565656752e+01 6.960582386363635976e+01
5.079884785353535648e+01 5.773287563131312794e+01 6.965364583333332860e+01
5.093071338383838054e+01 5.784911616161615910e+01 6.975710227272726627e+01
5.095229640151514872e+01 5.793177872474747403e+01 6.979383680555555713e+01
5.098149463383838054e+01 5.805251736111111427e+01 6.985712594696970257e+01
5.101795296717171624e+01 5.814642518939393767e+01 6.988853377525252597e+01
5.111699021464646364e+01 5.830196496212121104e+01 6.998031092171717660e+01
5.117518939393939092e+01 5.842440025252525260e+01 7.004056186868686495e+01
5.123437500000000000e+01 5.852146464646464352e+01 7.007481060606060908e+01
5.126972853535353636e+01 5.868828914141413833e+01 7.015041035353534937e+01
5.129225852272727337e+01 5.878073705808080973e+01 7.018020044191919737e+01
5.132583648989898961e+01 5.884919507575757791e+01 7.020004734848484418e+01
5.097088068181817988e+01 5.826933396464646364e+01 6.973492739898989612e+01
5.057086489898989612e+01 5.746827651515151558e+01 6.925220959595959869e+01
5.028862847222222143e+01 5.689910827020202078e+01 6.895198074494949481e+01
5.012780145202020066e+01 5.659165877525252597e+01 6.884339488636364024e+01
5.001830808080808310e+01 5.635101010101010388e+01 6.871827651515151558e+01
4.987172506313131493e+01 5.606932607323232531e+01 6.855748895202020776e+01
4.980271464646464352e+01 5.582844065656565391e+01 6.845312500000000000e+01
4.978712910353535648e+01 5.582879577020202078e+01 6.846342329545454675e+01
4.984446022727272663e+01 5.585866477272727337e+01 6.851017992424242209e+01
4.990080492424242209e+01 5.590916982323232531e+01 6.857267992424242209e+01
4.989658301767676818e+01 5.589532039141413833e+01 6.855251736111111427e+01
4.988419349747474740e+01 5.586667455808080973e+01 6.854691445707071296e+01
4.990179135101010388e+01 5.588648200757575779e+01 6.856198705808080263e+01
4.991792929292929415e+01 5.595533459595959869e+01 6.861000631313130782e+01
5.000220959595959869e+01 5.603772095959595845e+01 6.869523358585858830e+01
5.005859375000000000e+01 5.616591698232323182e+01 6.876803188131313505e+01
5.017163825757575779e+01 5.633199179292929415e+01 6.885945391414141170e+01
5.015664457070707272e+01 5.639906881313131493e+01 6.890743371212121815e+01
5.024577809343434609e+01 5.652497632575757791e+01 6.896942077020202078e+01
5.025386679292929415e+01 5.661008522727272663e+01 6.902596275252524549e+01
5.033147885101010388e+01 5.673851799242424221e+01 6.908731849747475451e+01
5.042144097222222143e+01 5.686699021464646364e+01 6.917096748737374412e+01
5.054087752525252597e+01 5.704356060606060908e+01 6.928424873737374412e+01
5.059244791666666430e+01 5.717009943181817988e+01 6.933944917929292728e+01
5.065455334595959869e+01 5.732169349747474740e+01 6.943296243686869218e+01
5.071859217171716949e+01 5.747806186868687206e+01 6.952635732323231821e+01
5.077166193181817988e+01 5.756317077020202078e+01 6.956695864898989612e+01
5.083207070707070585e+01 5.771764520202020066e+01 6.964015151515151558e+01
5.091792929292929415e+01 5.787941919191919027e+01 6.973516414141414543e+01
5.099151672979797922e+01 5.807595486111111427e+01 6.985546875000000000e+01
5.102884311868687206e+01 5.808518781565656752e+01 6.979052241161616621e+01
5.062125157828283051e+01 5.756459122474747403e+01 6.934473642676768179e+01
5.023615056818182012e+01 5.687314551767676818e+01 6.886746369949494806e+01
5.002884311868687206e+01 5.644472064393939092e+01 6.865684185606060908e+01
4.999021464646464352e+01 5.624636994949494806e+01 6.858743686868686495e+01
4.989409722222222143e+01 5.606897095959595845e+01 6.850457702020202078e+01
4.979304766414141170e+01 5.587922190656565391e+01 6.839863478535353636e+01
4.970817550505050519e+01 5.572569444444444287e+01 6.829529671717172334e+01
4.979387626262626299e+01 5.578693181818182012e+01 6.837863005050505194e+01
4.986880523989898961e+01 5.592262468434343248e+01 6.849270044191919737e+01
4.993390940656565391e+01 5.597920612373737725e+01 6.852955334595959869e+01
4.992862215909090651e+01 5.601369160353535648e+01 6.855867266414141170e+01
4.994105113636363313e+01 5.602769886363636687e+01 6.855847537878787534e+01
5.000445864898989612e+01 5.613624526515151558e+01 6.863750789141414543e+01
5.004628314393939092e+01 5.623867582070707272e+01 6.869116950757575069e+01
5.014902935606060908e+01 5.639808238636363313e+01 6.879628314393939092e+01
5.023165246212121104e+01 5.656151357323232531e+01 6.888774463383838054e+01
5.027683080808080973e+01 5.667376893939393767e+01 6.893607954545454675e+01
5.040514520202020066e+01 5.684580176767676818e+01 6.906202651515151558e+01
5.043481691919191690e+01 5.694255050505050519e+01 6.912184343434343248e+01
5.051594065656565391e+01 5.710337752525252597e+01 6.920407196969696884e+01
5.052020202020202078e+01 5.720517676767676818e+01 6.925189393939393767e+01
5.068304135101010388e+01 5.742814867424242209e+01 6.935696811868686495e+01
5.073808396464646364e+01 5.757236426767676818e+01 6.949960542929292728e+01
5.080626578282828376e+01 5.772466856060606233e+01 6.952769886363635976e+01
5.085771780303030454e+01 5.786576704545454675e+01 6.960345643939393767e+01
5.098279671717171624e+01 5.802493686868687206e+01 6.968560606060606233e+01
5.101345486111111427e+01 5.820979324494949481e+01 6.976061395202020776e+01
5.109955018939393767e+01 5.835223327020202078e+01 6.980488478535353636e+01
5.119965277777777857e+01 5.853140782828283051e+01 6.989425505050505194e+01
5.128385416666666430e+01 5.873761047979797922e+01 6.999723800505050519e+01
5.133143939393939092e+01 5.889362373737373701e+01 7.006849747474747403e+01
5.135247001262626299e+01 5.885704703282828376e+01 7.001487531565656752e+01
5.092996369949494806e+01 5.824483112373737725e+01 6.951913667929292728e+01
5.061138731060606233e+01 5.762432922979797922e+01 6.909939236111111427e+01
5.037843276515151558e+01 5.723323074494949481e+01 6.893540877525252597e+01
5.033648989898989612e+01 5.709753787878787534e+01 6.891950757575757791e+01
5.030863320707070585e+01 5.695178345959595845e+01 6.889938446969696884e+01
5.017921401515151558e+01 5.675023674242424221e+01 6.876128472222222854e+01
5.020158617424242209e+01 5.672683869949494806e+01 6.875919349747475451e+01
5.025323547979797922e+01 5.675781250000000000e+01 6.882630997474747403e+01
5.030961963383838054e+01 5.686217645202020066e+01 6.892357165404040131e+01
5.034659090909090651e+01 5.688368055555555713e+01 6.894002525252524549e+01
5.033526672979797922e+01 5.692696496212121104e+01 6.898015309343433898e+01
5.037776199494949481e+01 5.694057765151514872e+01 6.898145517676768179e+01
5.039638573232323182e+01 5.702185921717171624e+01 6.902122790404040131e+01
5.048295454545454675e+01 5.713604797979797922e+01 6.911379419191919737e+01
5.052142518939393767e+01 5.725469539141413833e+01 6.917262468434343248e+01
5.063656092171716949e+01 5.741497001262626299e+01 6.927955334595959869e+01
5.069819286616161946e+01 5.751479640151514872e+01 6.934307922979797922e+01
5.076854482323232531e+01 5.768773674242424221e+01 6.942937184343433898e+01
5.076838699494949481e+01 5.779758522727272663e+01 6.947166982323231821e+01
5.086947601010101039e+01 5.793892045454545325e+01 6.952919823232323893e+01
5.089401830808080973e+01 5.805089962121212466e+01 6.957047032828282340e+01
5.095762310606060908e+01 5.818821022727272663e+01 6.964938446969696884e+01
5.098137626262626299e+01 5.836300505050505194e+01 6.972774621212121815e+01
5.110933554292929415e+01 5.847139362373737725e+01 6.980235953282827666e+01
5.119716698232323182e+01 5.866670612373737725e+01 6.991165561868686495e+01
5.125552398989898961e+01 5.876436237373737725e+01 6.994728535353534937e+01
5.133005839646464352e+01 5.895111268939393767e+01 7.005007102272726627e+01
5.140920928030303116e+01 5.908660827020202078e+01 7.010586332070707272e+01
5.146310763888888573e+01 5.926171875000000000e+01 7.020348011363635976e+01
5.155093907828283051e+01 5.938521938131312794e+01 7.026227114898989612e+01
5.140534248737373701e+01 5.918564551767676818e+01 7.008637152777777146e+01
5.097163036616161946e+01 5.850445864898989612e+01 6.957453440656566102e+01
5.063916508838384090e+01 5.784891887626262275e+01 6.917562342171717660e+01
5.052793560606060908e+01 5.753077651515151558e+01 6.911332070707071296e+01
5.046014835858586167e+01 5.733625315656565391e+01 6.908199179292928704e+01
5.042416351010101039e+01 5.721014835858586167e+01 6.904458648989898961e+01
5.030496369949494806e+01 5.700335385101010388e+01 6.896152935606060908e+01
5.034177714646464352e+01 5.702690972222222143e+01 6.900086805555555713e+01
5.040348800505050519e+01 5.709035669191919027e+01 6.907504734848484418e+01
5.045718907828283051e+01 5.711912089646464352e+01 6.913632417929292728e+01
5.043734217171716949e+01 5.710258838383838054e+01 6.917029671717172334e+01
5.036312342171716949e+01 5.705078125000000000e+01 6.911059816919191690e+01
5.037717013888888573e+01 5.709686710858586167e+01 6.914721433080808310e+01
5.049475220959595845e+01 5.715289614898989612e+01 6.920008680555555713e+01
5.053902304292929415e+01 5.728697127525252597e+01 6.930622632575757791e+01
5.060029987373737725e+01 5.741485164141413833e+01 6.938770517676768179e+01
5.065561868686868507e+01 5.754924242424242209e+01 6.948595328282827666e+01
5.072979797979797922e+01 5.765056818181817988e+01 6.953630050505050519e+01
5.080247790404040131e+01 5.775875946969696884e+01 6.961829229797979224e+01
5.087184343434343248e+01 5.788510101010101039e+01 6.969507575757575069e+01
5.089926609848485128e+01 5.795071811868687206e+01 6.971397569444444287e+01
5.098236268939393767e+01 5.812030460858586167e+01 6.978270991161616621e+01
5.104281092171716949e+01 5.822873263888888573e+01 6.987140940656566102e+01
5.110775726010101039e+01 5.835475852272727337e+01 6.995813604797979224e+01
5.117558396464646364e+01 5.852185921717171624e+01 7.001491477272726627e+01
5.123082386363636687e+01 5.865317234848485128e+01 7.007441603535353636e+01
5.130677872474747403e+01 5.882019412878787534e+01 7.021618529040404155e+01
5.125737847222222143e+01 5.874680397727272663e+01 7.008992266414141170e+01
5.085586332070707272e+01 5.815336963383838054e+01 6.965494791666667140e+01
5.045513731060606233e+01 5.733866003787878896e+01 6.915415877525252597e+01
5.019298453282828376e+01 5.678168402777777857e+01 6.890636837121212466e+01
5.007828282828283051e+01 5.655082070707070585e+01 6.882496843434343248e+01
5.002450284090909349e+01 5.636083491161615910e+01 6.876771622474747403e+01
4.998137626262626299e+01 5.618323863636363313e+01 6.870044191919191690e+01
4.991055082070707272e+01 5.610357481060606233e+01 6.866923137626262985e+01
5.002343750000000000e+01 5.618442234848485128e+01 6.876475694444444287e+01
5.004872948232323182e+01 5.625548453282828376e+01 6.884292140151515582e+01
5.000071022727272663e+01 5.626601957070707272e+01 6.883814709595959869e+01
5.004521780303030454e+01 5.626317866161615910e+01 6.885629734848484418e+01
5.007378472222222143e+01 5.625023674242424221e+01 6.885361426767676107e+01
5.012219854797979934e+01 5.633005839646464352e+01 6.889681976010101039e+01
5.018635574494949481e+01 5.646160827020202078e+01 6.901905776515151558e+01
5.027462121212121104e+01 5.663825757575757791e+01 6.913573232323231821e+01
5.041165561868687206e+01 5.679028566919191690e+01 6.926313920454545325e+01
5.044543087121212466e+01 5.690755208333333570e+01 6.931238162878787534e+01
5.051613794191919027e+01 5.703618213383838054e+01 6.938514046717172334e+01
5.056352588383838054e+01 5.714607007575757791e+01 6.944720643939393767e+01
5.065826231060606233e+01 5.730788352272727337e+01 6.955551609848484418e+01
5.066043244949494806e+01 5.741863952020202078e+01 6.961150568181818699e+01
5.074794823232323182e+01 5.755981691919191690e+01 6.971890782828282340e+01
5.080180713383838054e+01 5.767522885101010388e+01 6.976519097222222854e+01
5.090786773989898961e+01 5.784489425505050519e+01 6.986146622474747403e+01
5.095221748737373701e+01 5.798078440656565391e+01 6.995647885101010388e+01
5.102000473484848442e+01 5.815999842171716949e+01 7.002316130050505194e+01
5.107563920454545325e+01 5.823520359848485128e+01 7.004391571969696884e+01
5.074617266414141170e+01 5.771334438131312794e+01 6.965210700757575069e+01
5.023690025252525260e+01 5.686126893939393767e+01 6.908854166666667140e+01
4.994053819444444287e+01 5.622383996212121104e+01 6.874846117424242209e+01
4.979186395202020066e+01 5.591970486111111427e+01 6.860357481060606233e+01
4.972336647727272663e+01 5.573425662878787534e+01 6.852371369949494806e+01
4.961750315656565391e+01 5.546156881313131493e+01 6.839307133838383379e+01
4.956770833333333570e+01 5.537373737373737725e+01 6.837720959595959869e+01
4.960858585858586167e+01 5.538983585858586167e+01 6.841556186868686495e+01
4.977801452020202078e+01 5.559398674242424221e+01 6.855089962121212466e+01
4.978862847222222143e+01 5.568982796717171624e+01 6.862385574494949481e+01
4.988979640151514872e+01 5.579257417929292728e+01 6.868635574494949481e+01
4.990226483585858830e+01 5.585949337121212466e+01 6.875580018939393767e+01
4.995541351010101039e+01 5.594673295454545325e+01 6.880058396464646364e+01
5.002272727272727337e+01 5.614835858585858830e+01 6.891193181818181301e+01
5.009730113636363313e+01 5.627706755050505194e+01 6.899155618686869218e+01
5.023985953282828376e+01 5.650201231060606233e+01 6.915794665404040131e+01
5.036454387626262275e+01 5.667120422979797922e+01 6.925043402777777146e+01
5.043623737373737725e+01 5.685937500000000000e+01 6.935748106060606233e+01
5.050098642676767469e+01 5.703207859848485128e+01 6.945521622474747403e+01
5.056522253787878896e+01 5.717554450757575779e+01 6.953870738636364024e+01
5.068047664141413833e+01 5.740175189393939092e+01 6.967337436868686495e+01
5.071212121212121104e+01 5.755713383838384090e+01 6.973137626262625588e+01
5.086201862373737725e+01 5.776653251262626299e+01 6.984134311868686495e+01
5.095513731060606233e+01 5.795639993686868507e+01 6.993777619949494806e+01
5.104987373737373701e+01 5.815672348484848442e+01 7.005523989898989612e+01
5.112997159090909349e+01 5.840333017676767469e+01 7.017637310606060908e+01
5.121318655303030454e+01 5.851842645202020066e+01 7.021239741161616621e+01
5.129983428030303116e+01 5.877347695707070585e+01 7.032587594696970257e+01
5.135373263888888573e+01 5.893406723484848442e+01 7.039098011363635976e+01
5.144128787878787534e+01 5.916635101010101039e+01 7.051546717171717660e+01
5.160404829545454675e+01 5.945900410353535648e+01 7.058321496212121815e+01
5.158341224747474740e+01 5.952249053030303116e+01 7.058120265151515582e+01
5.125023674242424221e+01 5.900954861111111427e+01 7.019105113636364024e+01
5.084982638888888573e+01 5.826901830808080973e+01 6.966690340909090651e+01
5.068529040404040131e+01 5.786710858585858830e+01 6.953093434343433898e+01
5.062227746212121104e+01 5.770387468434343248e+01 6.946366003787878185e+01
5.065920928030303116e+01 5.766457544191919027e+01 6.948670296717172334e+01
5.053172348484848442e+01 5.750836489898989612e+01 6.939535984848484418e+01
5.055985637626262275e+01 5.747178819444444287e+01 6.936572758838383379e+01
5.060377209595959869e+01 5.752848800505050519e+01 6.942779356060606233e+01
5.071531723484848442e+01 5.773252051767676818e+01 6.957548137626262985e+01
5.071815814393939092e+01 5.784899779040404155e+01 6.962267203282827666e+01
5.077398989898989612e+01 5.791666666666666430e+01 6.966950757575757791e+01
5.082938762626262275e+01 5.802746212121212466e+01 6.970975378787878185e+01
5.084536773989898961e+01 5.816749526515151558e+01 6.974577809343433898e+01
5.093485637626262275e+01 5.835215435606060908e+01 6.984489425505050519e+01
5.106802398989898961e+01 5.852398989898989612e+01 6.991603535353534937e+01
5.118375157828283051e+01 5.874498895202020066e+01 7.005654198232323893e+01
5.127497632575757791e+01 5.893848642676767469e+01 7.014697758838383379e+01
5.132173295454545325e+01 5.908814709595959869e+01 7.019168244949494806e+01
5.142700441919191690e+01 5.928622159090909349e+01 7.031336805555555713e+01
5.142992424242424221e+01 5.943244949494949481e+01 7.035432449494949481e+01
5.155192550505050519e+01 5.964583333333333570e+01 7.046038510101010388e+01
5.158838383838384090e+01 5.977730429292929415e+01 7.052004419191919737e+01
5.172230113636363313e+01 6.001854482323232531e+01 7.061655618686869218e+01
5.181135574494949481e+01 6.018209438131312794e+01 7.068556660353534937e+01
5.188983585858586167e+01 6.038226010101010388e+01 7.078125000000000000e+01
5.196444917929292728e+01 6.057919034090909349e+01 7.090131786616161946e+01
5.203298611111111427e+01 6.075000000000000000e+01 7.097332702020202078e+01
5.217968750000000000e+01 6.096851325757575779e+01 7.108609532828282340e+01
5.219337910353535648e+01 6.109678819444444287e+01 7.114461016414141170e+01
5.226598011363636687e+01 6.127860637626262275e+01 7.124640940656566102e+01
5.236304450757575779e+01 6.146894728535353636e+01 7.130212279040404155e+01
5.248693970959595845e+01 6.167507102272727337e+01 7.143248895202020776e+01
5.242716224747474740e+01 6.164196654040404155e+01 7.132788825757575069e+01
5.207769097222222143e+01 6.113577178030303116e+01 7.092238794191919737e+01
5.177272727272727337e+01 6.055129419191919027e+01 7.051420454545454675e+01
5.158254419191919027e+01 6.024116161616161946e+01 7.033191287878787534e+01
5.160310132575757791e+01 6.019416824494949481e+01 7.035941445707071296e+01
5.162259311868687206e+01 6.010570549242424221e+01 7.034134311868686495e+01
5.157761205808080973e+01 5.998496685606060908e+01 7.028468276515151558e+01
5.152178030303030454e+01 5.988715277777777857e+01 7.025142045454545325e+01
5.156005366161615910e+01 5.994531250000000000e+01 7.032252209595959869e+01
5.157666508838384090e+01 6.002947443181817988e+01 7.037859059343433898e+01
5.161919981060606233e+01 6.007421875000000000e+01 7.041512784090909349e+01
5.158049242424242209e+01 6.007149621212121104e+01 7.041808712121212466e+01
5.160093118686868507e+01 6.006668244949494806e+01 7.041216856060606233e+01
5.166429924242424221e+01 6.014646464646464352e+01 7.048532196969696884e+01
5.168982796717171624e+01 6.019535195707070585e+01 7.051132417929292728e+01
5.173997790404040131e+01 6.031431502525252597e+01 7.057346906565656752e+01
5.180026830808080973e+01 6.043473800505050519e+01 7.064101957070707272e+01
5.179265309343434609e+01 6.050524779040404155e+01 7.070016571969696884e+01
5.186754261363636687e+01 6.061706912878787534e+01 7.074443655303029743e+01
5.194412878787878896e+01 6.073169191919191690e+01 7.082291666666667140e+01
5.200883838383838054e+01 6.085732323232323182e+01 7.090088383838383379e+01
5.199080650252525260e+01 6.090920928030303116e+01 7.092467645202020776e+01
5.208708175505050519e+01 6.106609059343434609e+01 7.101179766414141170e+01
5.213498263888888573e+01 6.116055082070707272e+01 7.103665561868686495e+01
5.221863162878787534e+01 6.130180713383838054e+01 7.112062026515151558e+01
5.223721590909090651e+01 6.140293560606060908e+01 7.115561868686869218e+01
5.230701546717171624e+01 6.151929450757575779e+01 7.122699652777777146e+01
5.239997632575757791e+01 6.165392203282828376e+01 7.130164930555555713e+01
5.240699968434343248e+01 6.177300347222222143e+01 7.133455650252524549e+01
5.233065025252525260e+01 6.166366792929292728e+01 7.122679924242424931e+01
5.198583491161615910e+01 6.105354324494949481e+01 7.078034248737374412e+01
5.165127840909090651e+01 6.040632891414141170e+01 7.040112058080808310e+01
5.145813604797979934e+01 6.000532670454545325e+01 7.021113478535353636e+01
5.145367739898989612e+01 5.983656881313131493e+01 7.018631628787878185e+01
5.132634943181817988e+01 5.962732796717171624e+01 7.012464488636364024e+01
5.125351167929292728e+01 5.941276041666666430e+01 7.006364425505050519e+01
5.121539614898989612e+01 5.929036458333333570e+01 6.999554135101010388e+01
5.121831597222222143e+01 5.929407354797979934e+01 7.008084753787878185e+01
5.122861426767676818e+01 5.930847537878787534e+01 7.008214962121212466e+01
5.119846906565656752e+01 5.925023674242424221e+01 7.006352588383838054e+01
5.119874526515151558e+01 5.919432607323232531e+01 7.005733112373737015e+01
5.115214646464646364e+01 5.915830176767676818e+01 7.007591540404040131e+01
5.113675820707070585e+01 5.914354482323232531e+01 7.003338068181818699e+01
5.122940340909090651e+01 5.925860164141413833e+01 7.016374684343433898e+01
5.130843592171716949e+01 5.936193970959595845e+01 7.020789930555555713e+01
5.135140467171716949e+01 5.941043244949494806e+01 7.028196022727273373e+01
5.140052872474747403e+01 5.953342013888888573e+01 7.035175978535353636e+01
5.140348800505050519e+01 5.958467487373737725e+01 7.039212436868686495e+01
5.146247632575757791e+01 5.966370738636363313e+01 7.043848642676768179e+01
5.147608901515151558e+01 5.973050820707070585e+01 7.044136679292928704e+01
5.158207070707070585e+01 5.985732323232323182e+01 7.050741792929292728e+01
5.158802872474747403e+01 5.992641256313131493e+01 7.056230271464646364e+01
5.166070864898989612e+01 6.004502051767676818e+01 7.059599905303029743e+01
5.173544034090909349e+01 6.017341382575757791e+01 7.068604008838383379e+01
5.174909248737373701e+01 6.025840435606060908e+01 7.071863162878787534e+01
5.181411773989898961e+01 6.039318970959595845e+01 7.082106218434343248e+01
5.162661773989898961e+01 6.010183869949494806e+01 7.057469223484848442e+01
5.117179608585858830e+01 5.934351325757575779e+01 7.004363952020202078e+01
5.092901672979797922e+01 5.865155460858586167e+01 6.969432607323231821e+01
5.067463699494949481e+01 5.819610164141413833e+01 6.955121527777777146e+01
5.061493844696969546e+01 5.794258996212121104e+01 6.951976799242424931e+01
5.047364267676767469e+01 5.766903409090909349e+01 6.938273358585858830e+01
5.038936237373737725e+01 5.741635101010101039e+01 6.929024621212121815e+01
5.032623106060606233e+01 5.728519570707070585e+01 6.925615530303029743e+01
5.038971748737373701e+01 5.734000157828283051e+01 6.931901041666667140e+01
5.041686395202020066e+01 5.737488162878787534e+01 6.938529829545454675e+01
5.039484690656565391e+01 5.735254892676767469e+01 6.936438604797979224e+01
5.041903409090909349e+01 5.735700757575757791e+01 6.936931818181818699e+01
5.043012152777777857e+01 5.733368844696969546e+01 6.936983112373737015e+01
5.045987215909090651e+01 5.740905145202020066e+01 6.940905145202020776e+01
5.051231060606060908e+01 5.749289772727272663e+01 6.948721590909090651e+01
5.060550820707070585e+01 5.764433396464646364e+01 6.958530618686869218e+01
5.065751262626262275e+01 5.775804924242424221e+01 6.962515782828282340e+01
5.068793402777777857e+01 5.786217645202020066e+01 6.969203756313130782e+01
5.075635258838384090e+01 5.794022253787878896e+01 6.974277935606060908e+01
5.080310921717171624e+01 5.808767361111111427e+01 6.979711174242424931e+01
5.090131786616161946e+01 5.823733428030303116e+01 6.989026988636364024e+01
5.089650410353535648e+01 5.832106218434343248e+01 6.991860006313130782e+01
5.102951388888888573e+01 5.848232323232323182e+01 7.003109217171717660e+01
5.104111426767676818e+01 5.859335542929292728e+01 7.005295138888888573e+01
5.113596906565656752e+01 5.876238952020202078e+01 7.013707386363635976e+01
5.117207228535353636e+01 5.891670612373737725e+01 7.021137152777777146e+01
5.123524305555555713e+01 5.904490214646464352e+01 7.025355113636364024e+01
5.131656407828283051e+01 5.919061710858586167e+01 7.035049715909090651e+01
5.138202335858586167e+01 5.932189078282828376e+01 7.038028724747475451e+01
5.144034090909090651e+01 5.950299873737373701e+01 7.045565025252524549e+01
5.143339646464646364e+01 5.947601010101010388e+01 7.041429924242424931e+01
5.103566919191919027e+01 5.888131313131312794e+01 6.998074494949494806e+01
5.061710858585858830e+01 5.799510732323232531e+01 6.941319444444444287e+01
5.033203125000000000e+01 5.741331281565656752e+01 6.912906407828282340e+01
5.025580018939393767e+01 5.707934816919191690e+01 6.903689236111111427e+01
5.010554766414141170e+01 5.683218907828283051e+01 6.892230902777777146e+01
5.005496369949494806e+01 5.660152304292929415e+01 6.882863794191919737e+01
4.991942866161615910e+01 5.637602588383838054e+01 6.873003472222222854e+01
4.996196338383838054e+01 5.639125631313131493e+01 6.876278409090909349e+01
4.999830334595959869e+01 5.644132733585858830e+01 6.881522253787878185e+01
5.007240372474747403e+01 5.655898832070707272e+01 6.891157670454545325e+01
5.007859848484848442e+01 5.658727904040404155e+01 6.892392676767676107e+01
5.012302714646464352e+01 5.661119002525252597e+01 6.892337436868686495e+01
5.011931818181817988e+01 5.667787247474747403e+01 6.896417297979797922e+01
5.017593907828283051e+01 5.672944286616161946e+01 6.899112215909090651e+01
5.029064078282828376e+01 5.695052083333333570e+01 6.915254103535353636e+01
5.033424084595959869e+01 5.704494160353535648e+01 6.916189236111111427e+01
5.042301925505050519e+01 5.723741319444444287e+01 6.929486268939393767e+01
5.044566761363636687e+01 5.734891887626262275e+01 6.930520044191919737e+01
5.051163983585858830e+01 5.749001736111111427e+01 6.942814867424242209e+01
5.059576231060606233e+01 5.762574968434343248e+01 6.950043402777777146e+01
5.064382102272727337e+01 5.777450284090909349e+01 6.957043087121212466e+01
5.074921085858586167e+01 5.791650883838384090e+01 6.966240530303029743e+01
5.076546717171716949e+01 5.806250000000000000e+01 6.967708333333332860e+01
5.095351957070707272e+01 5.826980744949494806e+01 6.982788825757575069e+01
5.095849116161615910e+01 5.843308080808080973e+01 6.985590277777777146e+01
5.107204861111111427e+01 5.860913825757575779e+01 6.994357638888888573e+01
5.115222537878787534e+01 5.874471275252525260e+01 7.000702335858585457e+01
5.114192708333333570e+01 5.885909880050505194e+01 7.003886521464646364e+01
5.125658933080808310e+01 5.900658933080808310e+01 7.011470170454545325e+01
5.134773516414141170e+01 5.922904829545454675e+01 7.022652304292928704e+01
5.137417140151514872e+01 5.941268150252525260e+01 7.032934816919191690e+01
5.127612058080808310e+01 5.923603219696969546e+01 7.016516729797979224e+01
5.083049242424242209e+01 5.851089015151514872e+01 6.960795454545454675e+01
5.046279198232323182e+01 5.768580334595959869e+01 6.913592960858585457e+01
5.023642676767676818e+01 5.720123106060606233e+01 6.892660984848484418e+01
5.012634154040404155e+01 5.693284406565656752e+01 6.882962436868686495e+01
5.001633522727272663e+01 5.670446654040404155e+01 6.876601957070707272e+01
4.994610164141413833e+01 5.647940340909090651e+01 6.863612689393939092e+01
4.990431660353535648e+01 5.637590751262626299e+01 6.860491635101010388e+01
4.998244160353535648e+01 5.645434816919191690e+01 6.868098958333332860e+01
5.002241161616161946e+01 5.654529671717171624e+01 6.874305555555555713e+01
5.010254892676767469e+01 5.664121685606060908e+01 6.881861584595959869e+01
5.010894097222222143e+01 5.664966066919191690e+01 6.880212279040404155e+01
5.007500789141413833e+01 5.670079703282828376e+01 6.882642834595959869e+01
5.015739425505050519e+01 5.677671243686868507e+01 6.890628945707071296e+01
5.025280145202020066e+01 5.694882417929292728e+01 6.900122316919191690e+01
5.034584122474747403e+01 5.710215435606060908e+01 6.913971748737374412e+01
5.043600063131312794e+01 5.729790088383838054e+01 6.921456755050505194e+01
5.044874526515151558e+01 5.746926294191919027e+01 6.929028566919191690e+01
5.050607638888888573e+01 5.757488952020202078e+01 6.934035669191919737e+01
5.060965119949494806e+01 5.770655776515151558e+01 6.942246685606060908e+01
5.065033143939393767e+01 5.779632260101010388e+01 6.943016098484848442e+01
5.070000789141413833e+01 5.795079703282828376e+01 6.951061395202020776e+01
5.077466066919191690e+01 5.806522253787878896e+01 6.957232481060606233e+01
5.082512626262626299e+01 5.816556186868687206e+01 6.960527146464646364e+01
5.090431660353535648e+01 5.834449968434343248e+01 6.969550978535353636e+01
5.093892045454545325e+01 5.845454545454545325e+01 6.973295454545454675e+01
5.102844854797979934e+01 5.862456597222222143e+01 6.983037405303029743e+01
5.106186868686868507e+01 5.875426136363636687e+01 6.988178661616161946e+01
5.120817550505050519e+01 5.894996843434343248e+01 6.998674242424242209e+01
5.120442708333333570e+01 5.907058869949494806e+01 7.004344223484848442e+01
5.109221117424242209e+01 5.892759627525252597e+01 6.989318970959595845e+01
5.069282670454545325e+01 5.818982796717171624e+01 6.935886205808080263e+01
5.028685290404040131e+01 5.740112058080808310e+01 6.892810921717172334e+01
5.002576546717171624e+01 5.688450915404040131e+01 6.874120107323231821e+01
4.993694760101010388e+01 5.663312815656565391e+01 6.862634154040404155e+01
4.988435132575757791e+01 5.644148516414141170e+01 6.859947127525252597e+01
4.976100852272727337e+01 5.620813604797979934e+01 6.846823705808080263e+01
4.976988636363636687e+01 5.621070075757575779e+01 6.848169191919191690e+01
4.988076073232323182e+01 5.631636679292929415e+01 6.858672664141414543e+01
4.986639835858586167e+01 5.636560921717171624e+01 6.860045770202020776e+01
4.991244476010101039e+01 5.635894097222222143e+01 6.862172506313130782e+01
4.985677083333333570e+01 5.634887941919191690e+01 6.859603851010101039e+01
4.986351799242424221e+01 5.636825284090909349e+01 6.863735006313130782e+01
4.989607007575757791e+01 5.641674558080808310e+01 6.865885416666667140e+01
4.995450599747474740e+01 5.653878630050505194e+01 6.874427872474747403e+01
5.001333648989898961e+01 5.668852588383838054e+01 6.879158775252524549e+01
5.013936237373737725e+01 5.684690656565656752e+01 6.892518939393939092e+01
5.017870107323232531e+01 5.696926294191919027e+01 6.899593592171717660e+01
5.024396306818182012e+01 5.708345170454545325e+01 6.899996054292928704e+01
5.032579703282828376e+01 5.722163036616161946e+01 6.911115056818181301e+01
5.035984848484848442e+01 5.731423611111111427e+01 6.915546085858585457e+01
5.044361584595959869e+01 5.745576862373737725e+01 6.924696180555555713e+01
5.044850852272727337e+01 5.753326231060606233e+01 6.928010574494949481e+01
5.055626578282828376e+01 5.773540088383838054e+01 6.938028724747475451e+01
5.061253156565656752e+01 5.786379419191919027e+01 6.945707070707071296e+01
5.065415877525252597e+01 5.803436710858586167e+01 6.953720801767676107e+01
5.077844854797979934e+01 5.818185763888888573e+01 6.959805082070707272e+01
5.060385101010101039e+01 5.799021464646464352e+01 6.939977904040404155e+01
5.015652619949494806e+01 5.722928503787878896e+01 6.889421559343433898e+01
4.975201231060606233e+01 5.646334438131312794e+01 6.845166508838383379e+01
4.957615214646464352e+01 5.606242108585858830e+01 6.828637941919191690e+01
4.953866792929292728e+01 5.589851641414141170e+01 6.826546717171717660e+01
4.947048611111111427e+01 5.574605429292929415e+01 6.817771464646465063e+01
4.943213383838384090e+01 5.565988005050505194e+01 6.815924873737374412e+01
4.944116950757575779e+01 5.567949021464646364e+01 6.819274779040404155e+01
4.955713383838384090e+01 5.584974747474747403e+01 6.832196969696970257e+01
4.963253630050505194e+01 5.592909564393939092e+01 6.839516256313130782e+01
4.968189709595959869e+01 5.605516098484848442e+01 6.844957386363635976e+01
4.969132733585858830e+01 5.607248263888888573e+01 6.845853061868686495e+01
4.973583491161615910e+01 5.620032354797979934e+01 6.855022885101010388e+01
4.980441130050505194e+01 5.633960700757575779e+01 6.865636837121212466e+01
4.989342645202020066e+01 5.650232796717171624e+01 6.873449337121212466e+01
5.005598958333333570e+01 5.672675978535353636e+01 6.889184816919191690e+01
5.014062500000000000e+01 5.691540404040404155e+01 6.898626893939393767e+01
5.025000000000000000e+01 5.712342171717171624e+01 6.908996212121212466e+01
5.034240845959595845e+01 5.728353851010101039e+01 6.914827967171717660e+01
5.036908143939393767e+01 5.747750946969696884e+01 6.925276199494949481e+01
5.048307291666666430e+01 5.770845170454545325e+01 6.937859059343433898e+01
5.058854166666666430e+01 5.790909090909090651e+01 6.947411616161616621e+01
5.065810448232323182e+01 5.812717013888888573e+01 6.952852746212121815e+01
5.070565025252525260e+01 5.830350378787878896e+01 6.958396464646465063e+01
5.080188604797979934e+01 5.856009311868687206e+01 6.973196811868686495e+01
5.091039299242424221e+01 5.877355587121212466e+01 6.984631470959595845e+01
5.105385890151514872e+01 5.897810132575757791e+01 6.995521622474747403e+01
5.080121527777777857e+01 5.869799558080808310e+01 6.967700441919191690e+01
5.046251578282828376e+01 5.806178977272727337e+01 6.923319128787878185e+01
5.024412089646464352e+01 5.761343907828283051e+01 6.897486584595959869e+01
5.018241003787878896e+01 5.743083175505050519e+01 6.890842013888888573e+01
5.014725378787878896e+01 5.733775252525252597e+01 6.892045454545454675e+01
5.006447285353535648e+01 5.721172664141413833e+01 6.884951073232323893e+01
5.004584911616161946e+01 5.714133522727272663e+01 6.882362689393939092e+01
5.005914614898989612e+01 5.719203756313131493e+01 6.884828756313130782e+01
5.024120107323232531e+01 5.740313289141413833e+01 6.898378314393939092e+01
5.025998263888888573e+01 5.756522253787878896e+01 6.905243844696970257e+01
5.032157512626262275e+01 5.765664457070707272e+01 6.910976957070707272e+01
5.039153251262626299e+01 5.776905776515151558e+01 6.913569286616161946e+01
5.038474589646464352e+01 5.785901988636363313e+01 6.916899463383838054e+01
5.048587436868687206e+01 5.806999684343434609e+01 6.927643623737374412e+01
5.056762941919191690e+01 5.822561553030303116e+01 6.934509154040404155e+01
5.070348011363636687e+01 5.843848642676767469e+01 6.946247632575757791e+01
5.081226325757575779e+01 5.862555239898989612e+01 6.955689709595959869e+01
5.085325915404040131e+01 5.880385890151514872e+01 6.962898516414141170e+01
5.094081439393939092e+01 5.900868055555555713e+01 6.973863636363635976e+01
5.096677714646464352e+01 5.917084911616161946e+01 6.976633522727273373e+01
5.108364898989898961e+01 5.935637626262626299e+01 6.986300505050505194e+01
5.112827493686868507e+01 5.950185448232323182e+01 6.990794665404040131e+01
5.122841698232323182e+01 5.973204703282828376e+01 7.002829071969696884e+01
5.131987847222222143e+01 5.997486584595959869e+01 7.013916508838383379e+01
5.139082228535353636e+01 6.011241319444444287e+01 7.020111268939393767e+01
5.150205176767676818e+01 6.033775252525252597e+01 7.031849747474747403e+01
5.155137310606060908e+01 6.052091224747474740e+01 7.037934027777777146e+01
5.163975694444444287e+01 6.071377840909090651e+01 7.044846906565656752e+01
5.171788194444444287e+01 6.086955492424242209e+01 7.050497159090909349e+01
5.182638888888888573e+01 6.110022095959595845e+01 7.059406565656566102e+01
5.178705018939393767e+01 6.108913352272727337e+01 7.054004892676768179e+01
5.147585227272727337e+01 6.058270202020202078e+01 7.006013257575757791e+01
5.122814078282828376e+01 6.013975694444444287e+01 6.979332386363635976e+01
5.111363636363636687e+01 5.993513257575757791e+01 6.968197601010101039e+01
5.110061553030303116e+01 5.988233901515151558e+01 6.967463699494949481e+01
5.102623895202020066e+01 5.975856218434343248e+01 6.962030460858585457e+01
5.096906565656565391e+01 5.961158459595959869e+01 6.957575757575757791e+01
5.090546085858586167e+01 5.957212752525252597e+01 6.953440656565656752e+01
5.104636205808080973e+01 5.967278251262626299e+01 6.963411458333332860e+01
5.109193497474747403e+01 5.976175820707070585e+01 6.969089330808080263e+01
5.113667929292929415e+01 5.983522727272727337e+01 6.972443181818181301e+01
5.115526357323232531e+01 5.987069917929292728e+01 6.975185448232323893e+01
5.115313289141413833e+01 5.989098011363636687e+01 6.974230587121212466e+01
5.124045138888888573e+01 6.000181502525252597e+01 6.980121527777777146e+01
5.125552398989898961e+01 6.007875631313131493e+01 6.985274621212121815e+01
5.138060290404040131e+01 6.022387941919191690e+01 6.994483901515151558e+01
5.138877051767676818e+01 6.034568339646464352e+01 6.995695233585858830e+01
5.143327809343434609e+01 6.046026672979797922e+01 7.003791824494949481e+01
5.149522569444444287e+01 6.057335069444444287e+01 7.004383680555555713e+01
5.155034722222222143e+01 6.069649621212121104e+01 7.009232954545454675e+01
5.155835700757575779e+01 6.081908933080808310e+01 7.012290877525252597e+01
5.163056344696969546e+01 6.092728061868687206e+01 7.016149779040404155e+01
5.174376578282828376e+01 6.108735795454545325e+01 7.027028093434343248e+01
5.176452020202020066e+01 6.116540404040404155e+01 7.028061868686869218e+01
5.184552556818182012e+01 6.135483743686868507e+01 7.040123895202020776e+01
5.186284722222222143e+01 6.143118686868687206e+01 7.042708333333332860e+01
5.199806660353535648e+01 6.160175978535353636e+01 7.052663352272726627e+01
5.196042455808080973e+01 6.168548768939393767e+01 7.051550662878787534e+01
5.207788825757575779e+01 6.183956755050505194e+01 7.060029987373737015e+01
5.212835385101010388e+01 6.198488794191919027e+01 7.068280460858585457e+01
5.221855271464646364e+01 6.211264993686868507e+01 7.075311710858585457e+01
5.227288510101010388e+01 6.224873737373737725e+01 7.084090909090909349e+01
5.234086963383838054e+01 6.237653882575757791e+01 7.091157670454545325e+01
5.239386047979797922e+01 6.244704861111111427e+01 7.093142361111111427e+01
5.207808554292929415e+01 6.199711963383838054e+01 7.057524463383838054e+01
5.176526988636363313e+01 6.142388731060606233e+01 7.014831912878787534e+01
5.157674400252525260e+01 6.100288036616161946e+01 6.992838541666667140e+01
5.147482638888888573e+01 6.086702967171716949e+01 6.990127840909090651e+01
5.143323863636363313e+01 6.068607954545454675e+01 6.989756944444444287e+01
5.134094854797979934e+01 6.049767203282828376e+01 6.984694602272726627e+01
5.125015782828283051e+01 6.027477904040404155e+01 6.977714646464646364e+01
5.124960542929292728e+01 6.027154356060606233e+01 6.985535037878787534e+01
5.132181186868687206e+01 6.025157828282828376e+01 6.993750000000000000e+01
5.127296401515151558e+01 6.018347537878787534e+01 6.992526830808080263e+01
5.124439709595959869e+01 6.013139204545454675e+01 6.990348800505050519e+01
5.122506313131312794e+01 6.005666035353535648e+01 6.989299242424242209e+01
5.123058712121212466e+01 6.003851010101010388e+01 6.987531565656566102e+01
5.125946969696969546e+01 6.005445075757575779e+01 6.992013888888888573e+01
5.129150883838384090e+01 6.012421085858586167e+01 6.997648358585858830e+01
5.132417929292929415e+01 6.017818813131312794e+01 7.003961489898989612e+01
5.135878314393939092e+01 6.021105587121212466e+01 7.007264046717172334e+01
5.141374684343434609e+01 6.028985164141413833e+01 7.013628472222222854e+01
5.141773200757575779e+01 6.032603377525252597e+01 7.014011205808080263e+01
5.144594381313131493e+01 6.040190972222222143e+01 7.019404987373737015e+01
5.145059974747474740e+01 6.045012626262626299e+01 7.020675505050505194e+01
5.154119318181817988e+01 6.054545454545454675e+01 7.027351641414141170e+01
5.155981691919191690e+01 6.063620580808080973e+01 7.029766414141414543e+01
5.160673137626262275e+01 6.072115688131312794e+01 7.035389046717172334e+01
5.161438604797979934e+01 6.085475852272727337e+01 7.035333806818181301e+01
5.171847380050505194e+01 6.093169981060606233e+01 7.045284880050505194e+01
5.177718592171716949e+01 6.106190814393939092e+01 7.050303819444444287e+01
5.179782196969696884e+01 6.117266414141413833e+01 7.053093434343433898e+01
5.188581123737373701e+01 6.129821654040404155e+01 7.064670138888888573e+01
5.186943655303030454e+01 6.127568655303030454e+01 7.054557291666667140e+01
5.153381470959595845e+01 6.075445864898989612e+01 7.019195864898989612e+01
5.117795138888888573e+01 6.004837436868687206e+01 6.980105744949494806e+01
5.099636994949494806e+01 5.962436868686868507e+01 6.963415404040404155e+01
5.087389520202020066e+01 5.938525883838384090e+01 6.959406565656566102e+01
5.082114109848485128e+01 5.917956912878787534e+01 6.954415246212121815e+01
5.072999526515151558e+01 5.895837279040404155e+01 6.945111268939393767e+01
5.067124368686868507e+01 5.879387626262626299e+01 6.937610479797979224e+01
5.070600536616161946e+01 5.881837910353535648e+01 6.944842960858585457e+01
5.067834595959595845e+01 5.879071969696969546e+01 6.946764520202020776e+01
5.069988952020202078e+01 5.875512941919191690e+01 6.945778093434343248e+01
5.065384311868687206e+01 5.865210700757575779e+01 6.940747316919191690e+01
5.061426767676767469e+01 5.856344696969696884e+01 6.940088383838383379e+01
5.061225536616161946e+01 5.854249526515151558e+01 6.943706597222222854e+01
5.067148042929292728e+01 5.863107638888888573e+01 6.949202967171717660e+01
5.074451546717171624e+01 5.871973642676767469e+01 6.954943970959595845e+01
5.077726483585858830e+01 5.879194286616161946e+01 6.958171559343433898e+01
5.082153566919191690e+01 5.888166824494949481e+01 6.963324652777777146e+01
5.079983428030303116e+01 5.891852114898989612e+01 6.964042771464646364e+01
5.089283459595959869e+01 5.904182449494949481e+01 6.969349747474747403e+01
5.089563604797979934e+01 5.909639362373737725e+01 6.974143781565656752e+01
5.098054766414141170e+01 5.921444917929292728e+01 6.980235953282827666e+01
5.101763731060606233e+01 5.931356534090909349e+01 6.985665246212121815e+01
5.103314393939393767e+01 5.938825757575757791e+01 6.988415404040404155e+01
5.114184816919191690e+01 5.954273200757575779e+01 6.999743529040404155e+01
5.121875000000000000e+01 5.965877525252525260e+01 7.005366161616161946e+01
5.119625946969696884e+01 5.975449810606060908e+01 7.009367108585858830e+01
5.096314709595959869e+01 5.935392992424242209e+01 6.977012310606060908e+01
5.056932607323232531e+01 5.867002051767676818e+01 6.930890940656566102e+01
5.038024779040404155e+01 5.812740688131312794e+01 6.905338541666667140e+01
5.024246369949494806e+01 5.782769097222222143e+01 6.899877683080808310e+01
5.020872790404040131e+01 5.758309659090909349e+01 6.892668876262625588e+01
5.007445549242424221e+01 5.733992266414141170e+01 6.885538983585858830e+01
5.000485321969696884e+01 5.717657039141413833e+01 6.877868529040404155e+01
5.002296401515151558e+01 5.715680239898989612e+01 6.879805871212121815e+01
5.009891887626262275e+01 5.719898200757575779e+01 6.886454387626262985e+01
5.005172821969696884e+01 5.721050347222222143e+01 6.888695549242424931e+01
5.009797190656565391e+01 5.719913983585858830e+01 6.888190498737374412e+01
5.009832702020202078e+01 5.719144570707070585e+01 6.886758207070707272e+01
5.013596906565656752e+01 5.722230113636363313e+01 6.890427714646465063e+01
5.014283459595959869e+01 5.729592803030303116e+01 6.894744318181818699e+01
5.024305555555555713e+01 5.742834595959595845e+01 6.902856691919191690e+01
5.031297348484848442e+01 5.758254419191919027e+01 6.911221590909090651e+01
5.032915088383838054e+01 5.766879734848485128e+01 6.914464962121212466e+01
5.042945075757575779e+01 5.784943181818182012e+01 6.922821969696970257e+01
5.048847853535353636e+01 5.793765782828283051e+01 6.928519570707071296e+01
5.049049084595959869e+01 5.808613478535353636e+01 6.932855902777777146e+01
5.059532828282828376e+01 5.824195075757575779e+01 6.939930555555555713e+01
5.062338226010101039e+01 5.838237847222222143e+01 6.947565498737374412e+01
5.079407354797979934e+01 5.860136521464646364e+01 6.956538036616161946e+01
5.077694917929292728e+01 5.872360321969696884e+01 6.962859059343433898e+01
5.088024779040404155e+01 5.891323390151514872e+01 6.973851799242424931e+01
5.095904356060606233e+01 5.906968118686868507e+01 6.977217487373737015e+01
5.109809027777777857e+01 5.931131628787878896e+01 6.990948547979797922e+01
5.108530618686868507e+01 5.936387310606060908e+01 6.990348800505050519e+01
5.084505208333333570e+01 5.906616950757575779e+01 6.962724905303029743e+01
5.049897411616161946e+01 5.848650568181817988e+01 6.919120896464646364e+01
5.039733270202020066e+01 5.811971275252525260e+01 6.897656250000000000e+01
5.037350063131312794e+01 5.801286300505050519e+01 6.899092487373737015e+01
5.031526199494949481e+01 5.789922664141413833e+01 6.895430871212121815e+01
5.022948232323232531e+01 5.777178030303030454e+01 6.888652146464646364e+01
5.017404513888888573e+01 5.762843276515151558e+01 6.882682291666667140e+01
5.029068023989898961e+01 5.776716382575757791e+01 6.894771938131313505e+01
5.035290404040404155e+01 5.790009469696969546e+01 6.904450757575757791e+01
5.041836332070707272e+01 5.799806660353535648e+01 6.908471433080808310e+01
5.045407196969696884e+01 5.807544191919191690e+01 6.912484217171717660e+01
5.043710542929292728e+01 5.811718750000000000e+01 6.911876578282827666e+01
5.054766414141413833e+01 5.828345959595959869e+01 6.922127525252524549e+01
5.060258838383838054e+01 5.838320707070707272e+01 6.925647095959595845e+01
5.068588226010101039e+01 5.856893150252525260e+01 6.939768781565656752e+01
5.073808396464646364e+01 5.874187184343434609e+01 6.946803977272726627e+01
5.085361426767676818e+01 5.892810921717171624e+01 6.951112689393939092e+01
5.093481691919191690e+01 5.913494318181817988e+01 6.962042297979797922e+01
5.099199021464646364e+01 5.926235006313131493e+01 6.967191445707071296e+01
5.105042613636363313e+01 5.947151199494949481e+01 6.978038194444444287e+01
5.110191761363636687e+01 5.961627998737373701e+01 6.982240372474747403e+01
5.125481376262626299e+01 5.984035669191919027e+01 6.995320391414141170e+01
5.130074179292929415e+01 6.007346906565656752e+01 7.009887941919191690e+01
5.136091382575757791e+01 6.021855271464646364e+01 7.010728377525252597e+01
5.149672506313131493e+01 6.044764046717171624e+01 7.020963541666667140e+01
5.151029829545454675e+01 6.063119476010101039e+01 7.024909248737374412e+01
5.165447443181817988e+01 6.086407039141413833e+01 7.036249210858585457e+01
5.171871054292929415e+01 6.099538352272727337e+01 7.035239109848484418e+01
5.185290404040404155e+01 6.126862373737373701e+01 7.044081439393939092e+01
5.195032354797979934e+01 6.149214804292929415e+01 7.054880839646465063e+01
5.197660195707070585e+01 6.162227746212121104e+01 7.058139993686869218e+01
5.183439867424242209e+01 6.140794665404040131e+01 7.036012468434343248e+01
5.155859375000000000e+01 6.098425662878787534e+01 6.999751420454545325e+01
5.144081439393939092e+01 6.085385101010101039e+01 6.985037878787878185e+01
5.150347222222222143e+01 6.087594696969696884e+01 6.988368055555555713e+01
5.151412563131312794e+01 6.090901199494949481e+01 6.990932765151515582e+01
5.152126736111111427e+01 6.088774463383838054e+01 6.990258049242424931e+01
5.154533617424242209e+01 6.089192708333333570e+01 6.990944602272726627e+01
5.155575284090909349e+01 6.092396622474747403e+01 6.993864425505050519e+01
5.165798611111111427e+01 6.113068181818182012e+01 7.006455176767676107e+01
5.169858743686868507e+01 6.123836016414141170e+01 7.011651672979797922e+01
5.176574337121212466e+01 6.130377998737373701e+01 7.014058554292928704e+01
5.182780934343434609e+01 6.138952020202020066e+01 7.019807449494949481e+01
5.185491635101010388e+01 6.146192392676767469e+01 7.022470801767676107e+01
5.190901199494949481e+01 6.160219381313131493e+01 7.028085542929292728e+01
5.191871843434343248e+01 6.171543560606060908e+01 7.034011994949494806e+01
5.200943023989898961e+01 6.184812973484848442e+01 7.040557922979797922e+01
5.208218907828283051e+01 6.199080650252525260e+01 7.047092013888888573e+01
5.215692077020202078e+01 6.210657354797979934e+01 7.051897885101010388e+01
5.221259469696969546e+01 6.225789141414141170e+01 7.058633207070707272e+01
5.229762468434343248e+01 6.238790246212121104e+01 7.064973958333332860e+01
5.237645991161615910e+01 6.256664299242424221e+01 7.069732481060606233e+01
5.243919665404040131e+01 6.266031407828283051e+01 7.074854008838383379e+01
5.251590119949494806e+01 6.287259311868687206e+01 7.084528882575757791e+01
5.259339488636363313e+01 6.297628630050505194e+01 7.084970801767676107e+01
5.257804608585858830e+01 6.312065972222222143e+01 7.087208017676768179e+01
5.272754892676767469e+01 6.332335069444444287e+01 7.099222695707071296e+01
5.278030303030303116e+01 6.348421717171716949e+01 7.103756313131313505e+01
5.287397411616161946e+01 6.364338699494949481e+01 7.112223800505050519e+01
5.294523358585858830e+01 6.379071969696969546e+01 7.115482954545454675e+01
5.301195549242424221e+01 6.397013099747474740e+01 7.123891256313130782e+01
5.304711174242424221e+01 6.408088699494949481e+01 7.127880366161616621e+01
5.316619318181817988e+01 6.425804924242424931e+01 7.137326388888888573e+01
5.314946338383838054e+01 6.430650252525252597e+01 7.133980429292928704e+01
5.289539930555555713e+01 6.392949021464646364e+01 7.099988162878787534e+01
5.268777619949494806e+01 6.353783933080808310e+01 7.072060448232323893e+01
5.264966066919191690e+01 6.344827178030303116e+01 7.066938920454545325e+01
5.264476799242424221e+01 6.344858743686868507e+01 7.067522885101010388e+01
5.268158143939393767e+01 6.344152462121212466e+01 7.069404987373737015e+01
5.266307607323232531e+01 6.343075284090909349e+01 7.069258996212121815e+01
5.263944128787878896e+01 6.336103219696969546e+01 7.067416351010101039e+01
5.268276515151514872e+01 6.342692550505050519e+01 7.074400252525252597e+01
5.269239267676767469e+01 6.349400252525252597e+01 7.079119318181818699e+01
5.271953914141413833e+01 6.353914141414141170e+01 7.080681818181818699e+01
5.272391887626262275e+01 6.352789614898989612e+01 7.081151357323231821e+01
5.271819760101010388e+01 6.352312184343434609e+01 7.082204861111111427e+01
5.273903093434343248e+01 6.356399936868687206e+01 7.085014204545454675e+01
5.277292455808080973e+01 6.360752051767676818e+01 7.085657354797979224e+01
5.283739741161615910e+01 6.368903882575757791e+01 7.092530776515151558e+01
5.285602114898989612e+01 6.375769412878787534e+01 7.096681660353534937e+01
5.292345328282828376e+01 6.386474116161615910e+01 7.103630050505050519e+01
5.294440498737373701e+01 6.389563604797979934e+01 7.104415246212121815e+01
5.300777304292929415e+01 6.401108743686869218e+01 7.111351799242424931e+01
5.304182449494949481e+01 6.407007575757575069e+01 7.115719696969696884e+01
5.304458648989898961e+01 6.413975694444444287e+01 7.117826704545454675e+01
5.307587594696969546e+01 6.421018781565656752e+01 7.121618529040404155e+01
5.314358428030303116e+01 6.426400726010101039e+01 7.125848327020202078e+01
5.321133207070707272e+01 6.441003787878787534e+01 7.135684974747475451e+01
5.321657986111111427e+01 6.444527304292928704e+01 7.134142203282827666e+01
5.326818970959595845e+01 6.458037405303029743e+01 7.141670612373737015e+01
5.336627998737373701e+01 6.468083175505050519e+01 7.149506786616161946e+01
5.339879261363636687e+01 6.476006155303029743e+01 7.151132417929292728e+01
5.347474747474747403e+01 6.485763888888888573e+01 7.157591540404040131e+01
5.333854166666666430e+01 6.466808712121212466e+01 7.142471590909090651e+01
5.298733428030303116e+01 6.414200599747475451e+01 7.103641887626262985e+01
5.277655460858586167e+01 6.373173137626262275e+01 7.078397253787878185e+01
5.276432291666666430e+01 6.364595170454545325e+01 7.079541508838383379e+01
5.273382260101010388e+01 6.353464330808080973e+01 7.077391098484848442e+01
5.268840751262626299e+01 6.342073074494949481e+01 7.077915877525252597e+01
5.260274621212121104e+01 6.329371843434343248e+01 7.074147727272726627e+01
5.263967803030303116e+01 6.326136363636363313e+01 7.078882575757575069e+01
5.263482481060606233e+01 6.329502051767676818e+01 7.081190814393939092e+01
5.263537720959595845e+01 6.322044665404040131e+01 7.081908933080808310e+01
5.260657354797979934e+01 6.310973011363636687e+01 7.079423137626262985e+01
5.256526199494949481e+01 6.305279356060606233e+01 7.078022411616161946e+01
5.255086016414141170e+01 6.300729955808080973e+01 7.080275410353534937e+01
5.253689236111111427e+01 6.299475220959595845e+01 7.079462594696970257e+01
5.256991792929292728e+01 6.303519570707070585e+01 7.085053661616161946e+01
5.264326862373737725e+01 6.305567392676767469e+01 7.087685448232323893e+01
5.264153251262626299e+01 6.308992266414141170e+01 7.090668402777777146e+01
5.266587752525252597e+01 6.312263257575757791e+01 7.094523358585858830e+01
5.267321654040404155e+01 6.315538194444444287e+01 7.094420770202020776e+01
5.271685606060606233e+01 6.319775883838384090e+01 7.100363005050505194e+01
5.271531723484848442e+01 6.322052556818182012e+01 7.101566445707071296e+01
5.273836016414141170e+01 6.325729955808080973e+01 7.104896622474747403e+01
5.274842171717171624e+01 6.330113636363636687e+01 7.105950126262625588e+01
5.282804608585858830e+01 6.341295770202020066e+01 7.113186553030303116e+01
5.288360164141413833e+01 6.347719381313131493e+01 7.115680239898989612e+01
5.287385574494949481e+01 6.352852746212121104e+01 7.119393150252524549e+01
5.278835227272727337e+01 6.332765151515151558e+01 7.106565656565656752e+01
5.239109848484848442e+01 6.269618055555555713e+01 7.064172979797979224e+01
5.216189236111111427e+01 6.223386205808080973e+01 7.044708806818181301e+01
5.202367424242424221e+01 6.196401515151514872e+01 7.034232954545454675e+01
5.201219223484848442e+01 6.180433238636363313e+01 7.032248263888888573e+01
5.194085385101010388e+01 6.159947127525252597e+01 7.026503314393939092e+01
5.179091698232323182e+01 6.139413667929292728e+01 7.017522885101010388e+01
5.177892203282828376e+01 6.129328440656565391e+01 7.017207228535353636e+01
5.181297348484848442e+01 6.129119318181817988e+01 7.022064393939393767e+01
5.182812500000000000e+01 6.126767676767676818e+01 7.024794823232323893e+01
5.171452809343434609e+01 6.112377683080808310e+01 7.016244476010101039e+01
5.170793876262626299e+01 6.106368371212121104e+01 7.014622790404040131e+01
5.169140625000000000e+01 6.100295928030303116e+01 7.012448705808080263e+01
5.166662720959595845e+01 6.098307291666666430e+01 7.014121685606060908e+01
5.171586963383838054e+01 6.099364741161615910e+01 7.016883680555555713e+01
5.173287563131312794e+01 6.101444128787878896e+01 7.020446654040404155e+01
5.176645359848485128e+01 6.105685763888888573e+01 7.025351167929292728e+01
5.179573074494949481e+01 6.108139993686868507e+01 7.026905776515151558e+01
5.180196496212121104e+01 6.113356218434343248e+01 7.030985637626262985e+01
5.184090909090909349e+01 6.116792929292929415e+01 7.034232954545454675e+01
5.187693339646464352e+01 6.125145991161615910e+01 7.039445233585858830e+01
5.188269412878787534e+01 6.129888731060606233e+01 7.038884943181818699e+01
5.190885416666666430e+01 6.137760416666666430e+01 7.045320391414141170e+01
5.201826862373737725e+01 6.146287089646464352e+01 7.051684816919191690e+01
5.200639204545454675e+01 6.153843118686868507e+01 7.053132891414141170e+01
5.208218907828283051e+01 6.163158933080808310e+01 7.059244791666667140e+01
5.209635416666666430e+01 6.172040719696969546e+01 7.064480744949494806e+01
5.217949021464646364e+01 6.187866950757575779e+01 7.073757102272726627e+01
5.222210385101010388e+01 6.193296243686868507e+01 7.077513415404040131e+01
5.205906723484848442e+01 6.167996369949494806e+01 7.054880839646465063e+01
5.168430397727272663e+01 6.109481534090909349e+01 7.011912089646465063e+01
5.149984217171716949e+01 6.073153409090909349e+01 6.991335227272726627e+01
5.143742108585858830e+01 6.054079861111111427e+01 6.987839330808080263e+01
5.138431186868687206e+01 6.032717803030303116e+01 6.988115530303029743e+01
5.135124684343434609e+01 6.020462436868687206e+01 6.987271148989898961e+01
5.121875000000000000e+01 5.994791666666666430e+01 6.978503787878787534e+01
5.122687815656565391e+01 5.990617108585858830e+01 6.979427083333332860e+01
5.124305555555555713e+01 5.993087121212121104e+01 6.983617424242424931e+01
5.123117897727272663e+01 5.991583806818182012e+01 6.987354008838383379e+01
5.126807133838384090e+01 5.994341856060606233e+01 6.989401830808080263e+01
5.130516098484848442e+01 5.993268623737373701e+01 6.988644255050505194e+01
5.125836489898989612e+01 5.993907828282828376e+01 6.992676767676768179e+01
5.126953125000000000e+01 5.995419034090909349e+01 6.993809185606060908e+01
5.132342960858586167e+01 6.005117582070707272e+01 7.000524779040404155e+01
5.133163667929292728e+01 6.011209753787878896e+01 7.003618213383838054e+01
5.149037247474747403e+01 6.026925505050505194e+01 7.015482954545454675e+01
5.146780303030303116e+01 6.033869949494949481e+01 7.018497474747475451e+01
5.153862847222222143e+01 6.043667140151514872e+01 7.022975852272726627e+01
5.161016414141413833e+01 6.055255681818182012e+01 7.028677398989898961e+01
5.161793718434343248e+01 6.065976167929292728e+01 7.032579703282827666e+01
5.173658459595959869e+01 6.080050505050505194e+01 7.040167297979797922e+01
5.175832544191919027e+01 6.091662720959595845e+01 7.041725852272726627e+01
5.183542455808080973e+01 6.111320233585858830e+01 7.052339804292928704e+01
5.189563604797979934e+01 6.122028882575757791e+01 7.055646306818181301e+01
5.196377840909090651e+01 6.138959911616161946e+01 7.060629734848484418e+01
5.207990056818182012e+01 6.157390309343434609e+01 7.070079703282827666e+01
5.211103219696969546e+01 6.168789457070707272e+01 7.073334911616161946e+01
5.220742582070707272e+01 6.184789299242424221e+01 7.081506470959595845e+01
5.223086332070707272e+01 6.198165246212121104e+01 7.086186079545454675e+01
5.234951073232323182e+01 6.216090593434343248e+01 7.096109532828282340e+01
5.238407512626262275e+01 6.227406881313131493e+01 7.099644886363635976e+01
5.248082386363636687e+01 6.246756628787878896e+01 7.109256628787878185e+01
5.249408143939393767e+01 6.252249053030303116e+01 7.106999684343433898e+01
5.217416351010101039e+01 6.202327967171716949e+01 7.066485164141414543e+01
5.194069602272727337e+01 6.163735006313131493e+01 7.037282986111111427e+01
5.188506155303030454e+01 6.144140625000000000e+01 7.028547190656566102e+01
5.186880523989898961e+01 6.144030145202020066e+01 7.032950599747475451e+01
5.186193970959595845e+01 6.136714804292929415e+01 7.033574021464646364e+01
5.179427083333333570e+01 6.128132891414141170e+01 7.031794507575757791e+01
5.173528251262626299e+01 6.121081912878787534e+01 7.028641887626262985e+01
5.177840909090909349e+01 6.124747474747474740e+01 7.034090909090909349e+01
5.184173768939393767e+01 6.131348642676767469e+01 7.044511521464646364e+01
5.186762152777777857e+01 6.135420612373737725e+01 7.044511521464646364e+01
5.188892834595959869e+01 6.136856849747474740e+01 7.047904829545454675e+01
5.187046243686868507e+01 6.138087910353535648e+01 7.047541824494949481e+01
5.191205018939393767e+01 6.143335700757575779e+01 7.049522569444444287e+01
5.194712752525252597e+01 6.149084595959595845e+01 7.051404671717172334e+01
5.202600220959595845e+01 6.159734059343434609e+01 7.059071180555555713e+01
5.207508680555555713e+01 6.173528251262626299e+01 7.068525094696970257e+01
5.213817866161615910e+01 6.179537563131312794e+01 7.072529987373737015e+01
5.211217645202020066e+01 6.190699968434343248e+01 7.075595801767676107e+01
5.217917455808080973e+01 6.197194602272727337e+01 7.080322758838383379e+01
5.225966698232323182e+01 6.212077809343434609e+01 7.086193970959595845e+01
5.234189551767676818e+01 6.222810132575757791e+01 7.091307607323231821e+01
5.237417140151514872e+01 6.234939236111111427e+01 7.099175347222222854e+01
5.245687342171716949e+01 6.246476483585858830e+01 7.104131155303029743e+01
5.247526041666666430e+01 6.254644097222222143e+01 7.107690183080808310e+01
5.253918087121212466e+01 6.270158617424242209e+01 7.116733743686869218e+01
5.260696811868687206e+01 6.281388099747474740e+01 7.120939867424242209e+01
5.266820549242424221e+01 6.294377367424242209e+01 7.125706281565656752e+01
5.271255523989898961e+01 6.306751104797979934e+01 7.133850220959595845e+01
5.278547190656565391e+01 6.318967013888888573e+01 7.140621054292928704e+01
5.285838857323232531e+01 6.335744160353535648e+01 7.146444917929292728e+01
5.290845959595959869e+01 6.348390151515151558e+01 7.152730429292928704e+01
5.292183554292929415e+01 6.350501104797979934e+01 7.151637468434343248e+01
5.261635890151514872e+01 6.302071496212121104e+01 7.114050662878787534e+01
5.230815972222222143e+01 6.255121527777777857e+01 7.082378472222222854e+01
5.228476167929292728e+01 6.233384627525252597e+01 7.075651041666667140e+01
5.224842171717171624e+01 6.224463383838384090e+01 7.076736111111111427e+01
5.223768939393939092e+01 6.220628156565656752e+01 7.080823863636364024e+01
5.213924400252525260e+01 6.201755839646464352e+01 7.072794349747475451e+01
5.212910353535353636e+01 6.193986742424242209e+01 7.073453282828282340e+01
5.213111584595959869e+01 6.195150726010101039e+01 7.076179766414141170e+01
5.215905145202020066e+01 6.195482165404040131e+01 7.080535827020202078e+01
5.210759943181817988e+01 6.191899463383838054e+01 7.079494160353534937e+01
5.210219381313131493e+01 6.183325441919191690e+01 7.076302083333332860e+01
5.207181186868687206e+01 6.182007575757575779e+01 7.078488005050505194e+01
5.208526672979797922e+01 6.181459122474747403e+01 7.080054450757575069e+01
5.208854166666666430e+01 6.185779671717171624e+01 7.083428030303029743e+01
5.213995422979797922e+01 6.193540877525252597e+01 7.086817392676768179e+01
5.220592645202020066e+01 6.199285827020202078e+01 7.095513731060606233e+01
5.226089015151514872e+01 6.206770833333333570e+01 7.100505050505050519e+01
5.229640151515151558e+01 6.215577651515151558e+01 7.104829545454545325e+01
5.233222853535353636e+01 6.223626893939393767e+01 7.107670454545454675e+01
5.233025568181817988e+01 6.227249053030303116e+01 7.108720012626262985e+01
5.239169034090909349e+01 6.238190498737373701e+01 7.114895044191919737e+01
5.241236584595959869e+01 6.242641256313131493e+01 7.116078756313130782e+01
5.249842171717171624e+01 6.254434974747474740e+01 7.125868055555555713e+01
5.254466540404040131e+01 6.265293560606060908e+01 7.131044823232323893e+01
5.256822127525252597e+01 6.274577809343434609e+01 7.135657354797979224e+01
5.261900252525252597e+01 6.287168560606060908e+01 7.143481691919191690e+01
5.269330018939393767e+01 6.293414614898989612e+01 7.146192392676768179e+01
5.260834911616161946e+01 6.289591224747474740e+01 7.141201073232323893e+01
5.225027619949494806e+01 6.228326231060606233e+01 7.099080650252524549e+01
5.201795296717171624e+01 6.178957544191919027e+01 7.072912720959595845e+01
5.189307133838384090e+01 6.150733901515151558e+01 7.064038825757575069e+01
5.184465751262626299e+01 6.135791508838384090e+01 7.065084438131313505e+01
5.176523042929292728e+01 6.117432133838384090e+01 7.064764835858585457e+01
5.169412878787878896e+01 6.098042929292929415e+01 7.058522727272726627e+01
5.163596906565656752e+01 6.084603851010101039e+01 7.055389835858585457e+01
5.165190972222222143e+01 6.084146148989898961e+01 7.058972537878787534e+01
5.166224747474747403e+01 6.084832702020202078e+01 7.062310606060606233e+01
5.163466698232323182e+01 6.077781723484848442e+01 7.060531092171717660e+01
5.163699494949494806e+01 6.074652777777777857e+01 7.059738005050505194e+01
5.161545138888888573e+01 6.070983270202020066e+01 7.059588068181818699e+01
5.159832702020202078e+01 6.070249368686868507e+01 7.061237373737374412e+01
5.163387784090909349e+01 6.077339804292929415e+01 7.065834122474747403e+01
5.169507575757575779e+01 6.081739267676767469e+01 7.071291035353534937e+01
5.175935132575757791e+01 6.090692077020202078e+01 7.078286773989898961e+01
5.182275883838384090e+01 6.100268308080808310e+01 7.083459595959595845e+01
5.184824810606060908e+01 6.108025568181817988e+01 7.088486426767676107e+01
5.185779671717171624e+01 6.114709595959595845e+01 7.089741161616161946e+01
5.191256313131312794e+01 6.122395833333333570e+01 7.093607954545454675e+01
5.199281881313131493e+01 6.136545138888888573e+01 7.102975063131313505e+01
5.197443181818182012e+01 6.142013888888888573e+01 7.103630050505050519e+01
5.210996685606060908e+01 6.157082544191919027e+01 7.115826231060606233e+01
5.211576704545454675e+01 6.163912563131312794e+01 7.116437815656566102e+01
5.220178345959595845e+01 6.178117108585858830e+01 7.125528724747475451e+01
5.226010101010101039e+01 6.191777146464646364e+01 7.132307449494949481e+01
5.228523516414141170e+01 6.198188920454545325e+01 7.129565183080808310e+01
5.207816445707070585e+01 6.172336647727272663e+01 7.110168087121212466e+01
5.169689078282828376e+01 6.098303345959595845e+01 7.061860795454545325e+01
5.144992897727272663e+01 6.048938604797979934e+01 7.041173453282827666e+01
5.131774779040404155e+01 6.017507102272727337e+01 7.028570864898989612e+01
5.123796559343434609e+01 5.994913983585858830e+01 7.022502367424242209e+01
5.112219854797979934e+01 5.966607481060606233e+01 7.009947127525252597e+01
5.098346748737373701e+01 5.942112531565656752e+01 6.999009627525252597e+01
5.100911458333333570e+01 5.931356534090909349e+01 6.998465119949494806e+01
5.101057449494949481e+01 5.929529671717171624e+01 7.000505050505050519e+01
5.101834753787878896e+01 5.931901041666666430e+01 7.004012784090909349e+01
5.100153882575757791e+01 5.927900094696969546e+01 7.003136837121212466e+01
5.102032039141413833e+01 5.925390625000000000e+01 7.000090751262625588e+01
5.096784248737373701e+01 5.920821496212121104e+01 7.001945233585858830e+01
5.102896148989898961e+01 5.926633522727272663e+01 7.003811553030303116e+01
5.110250946969696884e+01 5.935929608585858830e+01 7.011576704545454675e+01
5.111868686868687206e+01 5.941682449494949481e+01 7.015167297979797922e+01
5.121488320707070585e+01 5.954206123737373701e+01 7.024802714646465063e+01
5.124494949494949481e+01 5.961931818181817988e+01 7.027398989898989612e+01
5.127663352272727337e+01 5.970829387626262275e+01 7.035018150252524549e+01
5.132800662878787534e+01 5.979959753787878896e+01 7.038466698232323893e+01
5.134627525252525260e+01 5.988194444444444287e+01 7.041066919191919737e+01
5.142877998737373701e+01 6.000074968434343248e+01 7.047612847222222854e+01
5.146744791666666430e+01 6.011848958333333570e+01 7.054573074494949481e+01
5.156218434343434609e+01 6.025741792929292728e+01 7.062784090909090651e+01
5.153965435606060908e+01 6.034489425505050519e+01 7.065628945707071296e+01
5.166291824494949481e+01 6.052118844696969546e+01 7.075524779040404155e+01
5.165116003787878896e+01 6.060712594696969546e+01 7.078136837121212466e+01
5.168828914141413833e+01 6.072553661616161946e+01 7.082875631313130782e+01
5.179967645202020066e+01 6.083881786616161946e+01 7.089689867424242209e+01
5.189030934343434609e+01 6.100773358585858830e+01 7.100315656565656752e+01
5.198993844696969546e+01 6.116591698232323182e+01 7.110357481060606233e+01
5.194140625000000000e+01 6.117862215909090651e+01 7.106072443181818699e+01
5.167447916666666430e+01 6.070935921717171624e+01 7.072703598484848442e+01
5.124325284090909349e+01 5.991386521464646364e+01 7.020142834595959869e+01
5.094669349747474740e+01 5.937077809343434609e+01 6.993627683080808310e+01
5.084998421717171624e+01 5.902485795454545325e+01 6.983609532828282340e+01
5.077596275252525260e+01 5.878590593434343248e+01 6.979758522727273373e+01
5.064784564393939092e+01 5.850374842171716949e+01 6.966394412878787534e+01
5.055484532828283051e+01 5.825134154040404155e+01 6.955074179292928704e+01
5.056830018939393767e+01 5.818793402777777857e+01 6.958645044191919737e+01
5.056194760101010388e+01 5.817968750000000000e+01 6.959572285353534937e+01
5.061371527777777857e+01 5.822324810606060908e+01 6.963028724747475451e+01
5.059410511363636687e+01 5.822036773989898961e+01 6.959868213383838054e+01
5.060006313131312794e+01 5.820659722222222143e+01 6.961931818181818699e+01
5.061612215909090651e+01 5.822060448232323182e+01 6.966725852272726627e+01
5.065273832070707272e+01 5.826574337121212466e+01 6.968967013888888573e+01
5.068588226010101039e+01 5.836943655303030454e+01 6.973985953282827666e+01
5.074112215909090651e+01 5.848686079545454675e+01 6.982603377525252597e+01
5.083487215909090651e+01 5.863080018939393767e+01 6.989326862373737015e+01
5.084651199494949481e+01 5.871677714646464352e+01 6.993773674242424931e+01
5.088099747474747403e+01 5.884043560606060908e+01 7.000126262626262985e+01
5.096780303030303116e+01 5.895785984848485128e+01 7.006155303030303116e+01
5.099131944444444287e+01 5.904719065656565391e+01 7.011900252525252597e+01
5.109939236111111427e+01 5.919835069444444287e+01 7.017025726010101039e+01
5.111726641414141170e+01 5.932244318181817988e+01 7.023405934343433898e+01
5.119961332070707272e+01 5.947754892676767469e+01 7.030867266414141170e+01
5.130875157828283051e+01 5.963955965909090651e+01 7.037393465909090651e+01
5.137314551767676818e+01 5.979723011363636687e+01 7.049451546717172334e+01
5.137413194444444287e+01 5.988265467171716949e+01 7.049976325757575069e+01
5.145928030303030454e+01 6.004545454545454675e+01 7.056534090909090651e+01
5.153819444444444287e+01 6.018939393939393767e+01 7.066066919191919737e+01
5.157990056818182012e+01 6.031064551767676818e+01 7.071689551767676107e+01
5.163967803030303116e+01 6.046180555555555713e+01 7.080303030303029743e+01
5.171105587121212466e+01 6.056680082070707272e+01 7.083905460858585457e+01
5.147920612373737725e+01 6.027371369949494806e+01 7.057453440656566102e+01
5.103365688131312794e+01 5.947589172979797922e+01 7.000840435606060908e+01
5.072151199494949481e+01 5.881541982323232531e+01 6.972482638888888573e+01
5.060775726010101039e+01 5.841710069444444287e+01 6.960870422979797922e+01
5.052327967171716949e+01 5.818678977272727337e+01 6.954269255050505194e+01
5.045442708333333570e+01 5.800982481060606233e+01 6.950903566919191690e+01
5.032035195707070585e+01 5.773970170454545325e+01 6.938585069444444287e+01
5.036375473484848442e+01 5.768493529040404155e+01 6.937133049242424931e+01
5.035724431818182012e+01 5.771267361111111427e+01 6.944625946969696884e+01
5.046066130050505194e+01 5.777189867424242209e+01 6.950185448232323893e+01
5.039247948232323182e+01 5.776811079545454675e+01 6.947912720959595845e+01
5.035160195707070585e+01 5.771176609848485128e+01 6.946681660353534937e+01
5.032796717171716949e+01 5.772553661616161946e+01 6.949005681818181301e+01
5.043465909090909349e+01 5.781360479797979934e+01 6.954608585858585457e+01
5.052635732323232531e+01 5.795943813131312794e+01 6.963573232323231821e+01
5.058913352272727337e+01 5.806577493686868507e+01 6.968935448232323893e+01
5.066635101010101039e+01 5.821243686868687206e+01 6.976625631313130782e+01
5.067215119949494806e+01 5.828436710858586167e+01 6.981798453282827666e+01
5.071405460858586167e+01 5.840991950757575779e+01 6.984852430555555713e+01
5.084221117424242209e+01 5.850966698232323182e+01 6.994322127525252597e+01
5.081482796717171624e+01 5.858960700757575779e+01 6.995718907828282340e+01
5.086908143939393767e+01 5.875213068181817988e+01 7.004711174242424931e+01
5.091390467171716949e+01 5.884824810606060908e+01 7.007267992424242209e+01
5.101795296717171624e+01 5.901306029040404155e+01 7.015400094696970257e+01
5.106376262626262275e+01 5.911347853535353636e+01 7.022806186868686495e+01
5.112038352272727337e+01 5.926479640151514872e+01 7.029651988636364024e+01
5.119377367424242209e+01 5.944771938131312794e+01 7.039831912878787534e+01
5.124565972222222143e+01 5.955721275252525260e+01 7.042384785353534937e+01
5.129683554292929415e+01 5.967294034090909349e+01 7.047960069444444287e+01
5.107765151515151558e+01 5.934469696969696884e+01 7.022774621212121815e+01
5.071563289141413833e+01 5.858826546717171624e+01 6.975745738636364024e+01
5.034122474747474740e+01 5.786442550505050519e+01 6.938936237373737015e+01
5.020044191919191690e+01 5.747679924242424221e+01 6.923579545454545325e+01
5.010815183080808310e+01 5.725524779040404155e+01 6.916907354797979224e+01
5.002122790404040131e+01 5.707709911616161946e+01 6.912050189393939092e+01
5.002418718434343248e+01 5.695111268939393767e+01 6.905622632575757791e+01
4.999838226010101039e+01 5.690699968434343248e+01 6.907477114898989612e+01
5.007335069444444287e+01 5.698323074494949481e+01 6.914437342171717660e+01
5.002663352272727337e+01 5.700627367424242209e+01 6.915510574494949481e+01
5.006001420454545325e+01 5.701661142676767469e+01 6.914587279040404155e+01
5.004699337121212466e+01 5.699727746212121104e+01 6.913790246212121815e+01
5.004971590909090651e+01 5.700189393939393767e+01 6.913431186868686495e+01
5.010945391414141170e+01 5.710392992424242209e+01 6.921898674242424931e+01
5.025931186868687206e+01 5.727351641414141170e+01 6.936537247474747403e+01
5.031415719696969546e+01 5.741532512626262275e+01 6.942495265151515582e+01
5.034899779040404155e+01 5.754612531565656752e+01 6.950003945707071296e+01
5.039685921717171624e+01 5.769215593434343248e+01 6.955737058080808310e+01
5.047024936868687206e+01 5.776033775252525260e+01 6.961450441919191690e+01
5.051313920454545325e+01 5.792459753787878896e+01 6.971279198232323893e+01
5.056593276515151558e+01 5.800532670454545325e+01 6.972660195707071296e+01
5.060333806818182012e+01 5.811233428030303116e+01 6.979210069444444287e+01
5.063143150252525260e+01 5.823875473484848442e+01 6.984449968434343248e+01
5.074487058080808310e+01 5.839591224747474740e+01 6.992353219696970257e+01
5.079292929292929415e+01 5.857891414141413833e+01 7.000552398989898961e+01
5.088210227272727337e+01 5.873106060606060908e+01 7.008443813131313505e+01
5.081104008838384090e+01 5.863001104797979934e+01 7.000264362373737015e+01
5.036631944444444287e+01 5.791272095959595845e+01 6.946764520202020776e+01
5.002272727272727337e+01 5.711032196969696884e+01 6.904529671717172334e+01
4.976700599747474740e+01 5.658360953282828376e+01 6.876984690656566102e+01
4.963300978535353636e+01 5.629525726010101039e+01 6.864468907828282340e+01
4.956052714646464352e+01 5.604032512626262275e+01 6.850639204545454675e+01
4.942080965909090651e+01 5.583621369949494806e+01 6.840550031565656752e+01
4.940131786616161946e+01 5.573196811868687206e+01 6.836312342171717660e+01
4.946373895202020066e+01 5.580464804292929415e+01 6.842680713383838054e+01
4.953306502525252597e+01 5.589970012626262275e+01 6.851128472222222854e+01
4.954056186868687206e+01 5.594460227272727337e+01 6.851736111111111427e+01
4.956210542929292728e+01 5.595746527777777857e+01 6.852959280303029743e+01
4.955977746212121104e+01 5.600090751262626299e+01 6.854052241161616621e+01
4.959481534090909349e+01 5.607934816919191690e+01 6.858787089646465063e+01
4.969022253787878896e+01 5.624530460858586167e+01 6.869558869949494806e+01
4.975291982323232531e+01 5.636434659090909349e+01 6.877296401515151558e+01
4.985531092171716949e+01 5.653081597222222143e+01 6.886856849747475451e+01
4.988880997474747403e+01 5.667542613636363313e+01 6.891358901515151558e+01
4.998437500000000000e+01 5.684832702020202078e+01 6.904655934343433898e+01
5.000437973484848442e+01 5.694945549242424221e+01 6.908455650252524549e+01
5.010830965909090651e+01 5.711115056818182012e+01 6.915723642676768179e+01
5.020316445707070585e+01 5.728223642676767469e+01 6.924341066919191690e+01
5.022778566919191690e+01 5.742349273989898961e+01 6.931427556818181301e+01
5.034150094696969546e+01 5.761407039141413833e+01 6.942167771464646364e+01
5.042542613636363313e+01 5.775891729797979934e+01 6.949502840909090651e+01
5.047020991161615910e+01 5.795490056818182012e+01 6.957469223484848442e+01
5.053732638888888573e+01 5.810235164141413833e+01 6.960882260101010388e+01
5.062318497474747403e+01 5.833309659090909349e+01 6.975149936868686495e+01
5.072711489898989612e+01 5.852256944444444287e+01 6.981944444444444287e+01
5.071231849747474740e+01 5.851045612373737725e+01 6.980922506313130782e+01
5.034753787878787534e+01 5.791224747474747403e+01 6.935195707070707272e+01
4.995044191919191690e+01 5.711647727272727337e+01 6.884154040404040131e+01
4.972080176767676818e+01 5.665072601010101039e+01 6.863226010101010388e+01
4.960724431818182012e+01 5.637397411616161946e+01 6.853985164141414543e+01
4.955082070707070585e+01 5.619460227272727337e+01 6.843386994949494806e+01
4.942002051767676818e+01 5.596847380050505194e+01 6.830370107323231821e+01
4.936829229797979934e+01 5.586939709595959869e+01 6.826996527777777146e+01
4.941248421717171624e+01 5.595399305555555713e+01 6.831920770202020776e+01
4.953622159090909349e+01 5.610045770202020066e+01 6.843726325757575069e+01
4.958502998737373701e+01 5.621586963383838054e+01 6.850532670454545325e+01
4.960894097222222143e+01 5.624782986111111427e+01 6.852702809343433898e+01
4.966946811868687206e+01 5.635949337121212466e+01 6.859465751262625588e+01
4.971910511363636687e+01 5.645363794191919027e+01 6.862535511363635976e+01
4.974648832070707272e+01 5.663569286616161946e+01 6.876605902777777146e+01
4.990849905303030454e+01 5.680559501262626299e+01 6.883337279040404155e+01
4.994732481060606233e+01 5.698220486111111427e+01 6.891654829545454675e+01
5.003227588383838054e+01 5.719294507575757791e+01 6.901302083333332860e+01
5.012922190656565391e+01 5.735460069444444287e+01 6.909118529040404155e+01
5.020782039141413833e+01 5.754794034090909349e+01 6.916662720959595845e+01
5.029549400252525260e+01 5.767870107323232531e+01 6.926771622474747403e+01
5.037334280303030454e+01 5.789007260101010388e+01 6.939386047979797922e+01
5.041327335858586167e+01 5.805026830808080973e+01 6.942952967171717660e+01
5.054221906565656752e+01 5.827438446969696884e+01 6.954726957070707272e+01
5.058538510101010388e+01 5.846780303030303116e+01 6.958948863636364024e+01
5.067175662878787534e+01 5.865944602272727337e+01 6.969795612373737015e+01
5.082441603535353636e+01 5.888328598484848442e+01 6.983309659090909349e+01
5.088770517676767469e+01 5.906463068181817988e+01 6.991106376262625588e+01
5.096077967171716949e+01 5.925654987373737725e+01 6.999802714646465063e+01
5.103945707070707272e+01 5.940214646464646364e+01 7.004734848484848442e+01
5.115770991161615910e+01 5.965439551767676818e+01 7.015913036616161946e+01
5.124719854797979934e+01 5.982816445707070585e+01 7.024751420454545325e+01
5.120576862373737725e+01 5.987006786616161946e+01 7.023480902777777146e+01
5.085838857323232531e+01 5.933345170454545325e+01 6.983518781565656752e+01
5.048599273989898961e+01 5.871200284090909349e+01 6.937409248737374412e+01
5.034801136363636687e+01 5.829450757575757791e+01 6.918087121212121815e+01
5.031222380050505194e+01 5.811793718434343248e+01 6.913293087121212466e+01
5.026728219696969546e+01 5.799455492424242209e+01 6.910945391414141170e+01
5.011332070707070585e+01 5.777556818181817988e+01 6.899636994949494806e+01
5.013289141414141170e+01 5.771117424242424221e+01 6.894586489898989612e+01
5.016781092171716949e+01 5.771563289141413833e+01 6.902971117424242209e+01
5.022806186868687206e+01 5.780697601010101039e+01 6.907244318181818699e+01
5.024459438131312794e+01 5.788569286616161946e+01 6.913222064393939092e+01
5.030654198232323182e+01 5.790834122474747403e+01 6.913624526515151558e+01
5.028543244949494806e+01 5.795099431818182012e+01 6.917511047979797922e+01
5.032267992424242209e+01 5.800260416666666430e+01 6.919452335858585457e+01
5.035341698232323182e+01 5.812598642676767469e+01 6.927039930555555713e+01
5.040853851010101039e+01 5.824629103535353636e+01 6.930168876262625588e+01
5.049952651515151558e+01 5.838857323232323182e+01 6.942171717171717660e+01
5.059958964646464352e+01 5.859485479797979934e+01 6.955571338383838054e+01
5.061695075757575779e+01 5.871638257575757791e+01 6.953993055555555713e+01
5.070296717171716949e+01 5.886332070707070585e+01 6.963888888888888573e+01
5.074877683080808310e+01 5.900130208333333570e+01 6.968974905303029743e+01
5.081944444444444287e+01 5.912910353535353636e+01 6.978251262626262985e+01
5.091666666666666430e+01 5.926562500000000000e+01 6.987136994949494806e+01
5.101325757575757791e+01 5.947190656565656752e+01 6.996590909090909349e+01
5.106924715909090651e+01 5.961706912878787534e+01 7.002473958333332860e+01
5.112338226010101039e+01 5.978247316919191690e+01 7.014437342171717660e+01
5.124262152777777857e+01 5.994858743686868507e+01 7.023488794191919737e+01
5.122447127525252597e+01 6.003807607323232531e+01 7.026077178030303116e+01
5.134260574494949481e+01 6.024980271464646364e+01 7.035933554292928704e+01
5.142479482323232531e+01 6.038076073232323182e+01 7.043915719696970257e+01
5.147032828282828376e+01 6.047001262626262275e+01 7.051010101010101039e+01
5.122518150252525260e+01 6.012196180555555713e+01 7.017483428030303116e+01
5.083380681818182012e+01 5.945580808080808310e+01 6.971701388888888573e+01
5.060061553030303116e+01 5.898492739898989612e+01 6.944105113636364024e+01
5.049494949494949481e+01 5.871875000000000000e+01 6.936505681818181301e+01
5.045525568181817988e+01 5.858704229797979934e+01 6.933672664141414543e+01
5.039263731060606233e+01 5.837874842171716949e+01 6.924033301767676107e+01
5.034966856060606233e+01 5.824944760101010388e+01 6.922798295454545325e+01
5.034272411616161946e+01 5.823255997474747403e+01 6.924313446969696884e+01
5.042159880050505194e+01 5.828760258838384090e+01 6.931159248737374412e+01
5.039693813131312794e+01 5.826546717171716949e+01 6.931502525252524549e+01
5.035479797979797922e+01 5.825836489898989612e+01 6.923042929292928704e+01
5.038269412878787534e+01 5.821318655303030454e+01 6.928089488636364024e+01
5.040573705808080973e+01 5.826242897727272663e+01 6.931656407828282340e+01
5.041875789141413833e+01 5.830938289141413833e+01 6.936036142676768179e+01
5.048425662878787534e+01 5.839618844696969546e+01 6.940407986111111427e+01
5.056084280303030454e+01 5.853132891414141170e+01 6.951807133838383379e+01
5.057575757575757791e+01 5.860227272727272663e+01 6.953977272727273373e+01
5.065368529040404155e+01 5.871855271464646364e+01 6.960570549242424931e+01
5.063474589646464352e+01 5.882319286616161946e+01 6.962685448232323893e+01
5.068761837121212466e+01 5.890889362373737725e+01 6.966347064393939092e+01
5.074009627525252597e+01 5.900587910353535648e+01 6.971515940656566102e+01
5.077146464646464352e+01 5.908775252525252597e+01 6.975647095959595845e+01
5.084524936868687206e+01 5.919925820707070585e+01 6.984051452020202078e+01
5.086892361111111427e+01 5.929206123737373701e+01 6.988218118686869218e+01
5.098922821969696884e+01 5.947612847222222143e+01 6.998401988636364024e+01
5.107271938131312794e+01 5.960365372474747403e+01 7.005330650252524549e+01
5.101925505050505194e+01 5.958696338383838054e+01 7.001751893939393767e+01
5.066465435606060908e+01 5.906190814393939092e+01 6.960483743686869218e+01
5.032315340909090651e+01 5.834635416666666430e+01 6.916564078282827666e+01
5.008645044191919027e+01 5.785239109848485128e+01 6.894550978535353636e+01
4.995943813131312794e+01 5.750852272727272663e+01 6.887026515151515582e+01
4.990593434343434609e+01 5.729924242424242209e+01 6.881344696969696884e+01
4.981976010101010388e+01 5.708554292929292728e+01 6.873374368686869218e+01
4.974818497474747403e+01 5.694247159090909349e+01 6.870920138888888573e+01
4.983254419191919027e+01 5.697900883838384090e+01 6.877051767676768179e+01
4.984359217171716949e+01 5.702935606060606233e+01 6.878598484848484418e+01
4.991102430555555713e+01 5.704123263888888573e+01 6.881348642676768179e+01
4.984359217171716949e+01 5.699463383838384090e+01 6.881155303030303116e+01
4.987468434343434609e+01 5.700457702020202078e+01 6.884343434343433898e+01
4.987815656565656752e+01 5.705571338383838054e+01 6.887642045454545325e+01
4.995328282828283051e+01 5.712010732323232531e+01 6.891445707070707272e+01
5.004711174242424221e+01 5.730800189393939092e+01 6.902612058080808310e+01
5.010700757575757791e+01 5.740135732323232531e+01 6.908396464646465063e+01
5.019965277777777857e+01 5.752746212121212466e+01 6.917234848484848442e+01
5.020596590909090651e+01 5.763999368686868507e+01 6.923374368686869218e+01
5.023745265151514872e+01 5.773177083333333570e+01 6.926444128787878185e+01
5.030646306818182012e+01 5.781814236111111427e+01 6.929083806818181301e+01
5.033601641414141170e+01 5.794618055555555713e+01 6.935369318181818699e+01
5.040522411616161946e+01 5.807552083333333570e+01 6.941011679292928704e+01
5.037780145202020066e+01 5.818335700757575779e+01 6.942167771464646364e+01
5.050288036616161946e+01 5.836336016414141170e+01 6.953507733585858830e+01
5.057832228535353636e+01 5.844906092171716949e+01 6.958937026515151558e+01
5.064370265151514872e+01 5.863833648989898961e+01 6.969136679292928704e+01
5.067132260101010388e+01 5.872403724747474740e+01 6.972151199494949481e+01
5.041098484848485128e+01 5.835574494949494806e+01 6.941303661616161946e+01
5.002955334595959869e+01 5.754644097222222143e+01 6.890029198232323893e+01
4.968663194444444287e+01 5.680958017676767469e+01 6.853101325757575069e+01
4.951645359848485128e+01 5.645821496212121104e+01 6.841086647727273373e+01
4.937069917929292728e+01 5.614895044191919027e+01 6.822881155303029743e+01
4.928184185606060908e+01 5.588111584595959869e+01 6.814926609848484418e+01
4.914259785353535648e+01 5.561560921717171624e+01 6.800512941919191690e+01
4.916737689393939092e+01 5.558530618686868507e+01 6.800418244949494806e+01
4.922324810606060908e+01 5.565806502525252597e+01 6.808420138888888573e+01
4.927730429292929415e+01 5.572632575757575779e+01 6.813873106060606233e+01
4.926704545454545325e+01 5.574337121212121104e+01 6.814914772727273373e+01
4.926712436868687206e+01 5.575449810606060908e+01 6.814322916666667140e+01
4.930741003787878896e+01 5.579825599747474740e+01 6.819566761363635976e+01
4.933325441919191690e+01 5.588707386363636687e+01 6.823555871212121815e+01
4.950390625000000000e+01 5.606119791666666430e+01 6.837969539141414543e+01
4.954233743686868507e+01 5.616212910353535648e+01 6.841544349747475451e+01
4.965226483585858830e+01 5.633802872474747403e+01 6.855425347222222854e+01
4.970383522727272663e+01 5.649108270202020066e+01 6.863123421717172334e+01
4.978117108585858830e+01 5.661387310606060908e+01 6.868284406565656752e+01
4.981987847222222143e+01 5.673212594696969546e+01 6.875706281565656752e+01
4.982382417929292728e+01 5.683818655303030454e+01 6.880914614898989612e+01
4.992562342171716949e+01 5.700153882575757791e+01 6.888600852272726627e+01
5.000572127525252597e+01 5.713845486111111427e+01 6.894622001262625588e+01
5.011351799242424221e+01 5.731790561868687206e+01 6.905306976010101039e+01
5.015984059343434609e+01 5.748165246212121104e+01 6.910870422979797922e+01
5.023607165404040131e+01 5.763900726010101039e+01 6.922202493686869218e+01
5.032457386363636687e+01 5.778401199494949481e+01 6.926444128787878185e+01
5.037417140151514872e+01 5.788948074494949481e+01 6.931293402777777146e+01
5.042167771464646364e+01 5.805046559343434609e+01 6.938222064393939092e+01
5.046993371212121104e+01 5.821125315656565391e+01 6.944262941919191690e+01
5.058400410353535648e+01 5.839066445707070585e+01 6.955717329545454675e+01
5.049412089646464352e+01 5.827900094696969546e+01 6.946397569444444287e+01
5.009102746212121104e+01 5.758439867424242209e+01 6.896334438131313505e+01
4.964989741161615910e+01 5.669061710858586167e+01 6.842720170454545325e+01
4.938162878787878896e+01 5.612894570707070585e+01 6.817787247474747403e+01
4.924494949494949481e+01 5.582623106060606233e+01 6.805097853535353636e+01
4.916126104797979934e+01 5.559434185606060908e+01 6.791883680555555713e+01
4.902470012626262275e+01 5.535487689393939092e+01 6.781273674242424931e+01
4.894716698232323182e+01 5.514760890151514872e+01 6.772573390151515582e+01
4.899936868686868507e+01 5.520596590909090651e+01 6.779008838383838054e+01
4.909134311868687206e+01 5.529304766414141170e+01 6.786438604797979224e+01
4.916035353535353636e+01 5.541398358585858830e+01 6.795438762626262985e+01
4.918564551767676818e+01 5.545000789141413833e+01 6.795174400252524549e+01
4.917380839646464352e+01 5.547762784090909349e+01 6.796610637626262985e+01
4.922699652777777857e+01 5.557848011363636687e+01 6.804786142676768179e+01
4.929281092171716949e+01 5.568627683080808310e+01 6.811793718434343248e+01
4.945351957070707272e+01 5.587586805555555713e+01 6.825244633838383379e+01
4.944894255050505194e+01 5.601980744949494806e+01 6.830484532828282340e+01
4.959793244949494806e+01 5.621930239898989612e+01 6.845841224747475451e+01
4.965037089646464352e+01 5.636501736111111427e+01 6.854699337121212466e+01
4.969116950757575779e+01 5.648962279040404155e+01 6.859710385101010388e+01
4.980504261363636687e+01 5.668824968434343248e+01 6.868667140151515582e+01
4.983996212121212466e+01 5.678488005050505194e+01 6.875631313131313505e+01
4.991011679292929415e+01 5.693158143939393767e+01 6.879600694444444287e+01
5.000899621212121104e+01 5.710321969696969546e+01 6.890435606060606233e+01
5.006538036616161946e+01 5.729012784090909349e+01 6.899640940656566102e+01
5.013427241161615910e+01 5.741599589646464352e+01 6.908313604797979224e+01
5.018138415404040131e+01 5.759773516414141170e+01 6.911572758838383379e+01
5.030452967171716949e+01 5.777296401515151558e+01 6.923650568181818699e+01
5.032007575757575779e+01 5.791145833333333570e+01 6.927856691919191690e+01
5.047664141414141170e+01 5.809895833333333570e+01 6.941982323232323893e+01
5.052418718434343248e+01 5.827481849747474740e+01 6.946989425505050519e+01
5.057646780303030454e+01 5.839717487373737725e+01 6.952470012626262985e+01
5.048918876262626299e+01 5.824723800505050519e+01 6.936955492424242209e+01
5.002769886363636687e+01 5.737697285353535648e+01 6.880452967171717660e+01
4.961880523989898961e+01 5.656640625000000000e+01 6.835460069444444287e+01
4.936040088383838054e+01 5.606904987373737725e+01 6.812918244949494806e+01
4.929675662878787534e+01 5.586320233585858830e+01 6.807721748737374412e+01
4.922683869949494806e+01 5.570490056818182012e+01 6.800256470959595845e+01
4.911379419191919027e+01 5.549857954545454675e+01 6.787578914141414543e+01
4.912937973484848442e+01 5.549049084595959869e+01 6.790100220959595845e+01
4.917688604797979934e+01 5.556072443181817988e+01 6.797612847222222854e+01
4.930547664141413833e+01 5.569105113636363313e+01 6.810471906565656752e+01
4.928559027777777857e+01 5.572924558080808310e+01 6.808846275252524549e+01
4.932583648989898961e+01 5.574218750000000000e+01 6.808925189393939092e+01
4.931135574494949481e+01 5.575232796717171624e+01 6.811927872474747403e+01
4.937350063131312794e+01 5.586387310606060908e+01 6.819988952020202078e+01
4.945052083333333570e+01 5.605784406565656752e+01 6.828464330808080263e+01
4.952892203282828376e+01 5.618027935606060908e+01 6.836588541666667140e+01
4.965621054292929415e+01 5.639137468434343248e+01 6.852189867424242209e+01
4.973595328282828376e+01 5.652083333333333570e+01 6.856849747474747403e+01
4.976728219696969546e+01 5.667558396464646364e+01 6.866059027777777146e+01
4.985799400252525260e+01 5.678728693181817988e+01 6.872967960858585457e+01
4.988636363636363313e+01 5.691808712121212466e+01 6.877477904040404155e+01
4.995304608585858830e+01 5.707962436868687206e+01 6.886292613636364024e+01
4.999408143939393767e+01 5.723571654040404155e+01 6.894057765151515582e+01
5.012401357323232531e+01 5.740226483585858830e+01 6.901905776515151558e+01
5.017826704545454675e+01 5.752927714646464352e+01 6.905026830808080263e+01
5.024388415404040131e+01 5.774183238636363313e+01 6.914966066919191690e+01
5.035104955808080973e+01 5.793801294191919027e+01 6.928318339646465063e+01
5.041745580808080973e+01 5.804419191919191690e+01 6.929908459595959869e+01
5.020304608585858830e+01 5.775481376262626299e+01 6.905610795454545325e+01
4.972786458333333570e+01 5.684197443181817988e+01 6.847818023989898961e+01
4.931250000000000000e+01 5.606723484848485128e+01 6.804324494949494806e+01
4.912618371212121104e+01 5.565506628787878896e+01 6.783546401515151558e+01
4.906230271464646364e+01 5.548717645202020066e+01 6.782634943181818699e+01
4.901120580808080973e+01 5.528330176767676818e+01 6.773137626262625588e+01
4.896800031565656752e+01 5.517728061868687206e+01 6.768817077020202078e+01
4.897170928030303116e+01 5.518556660353535648e+01 6.770198074494949481e+01
4.904217960858586167e+01 5.531932607323232531e+01 6.780022885101010388e+01
4.909536773989898961e+01 5.540423768939393767e+01 6.786399147727273373e+01
4.907153566919191690e+01 5.539745107323232531e+01 6.783274147727273373e+01
4.913186553030303116e+01 5.545967487373737725e+01 6.788281250000000000e+01
4.913746843434343248e+01 5.550678661616161946e+01 6.790861742424242209e+01
4.925982481060606233e+01 5.565628945707070585e+01 6.803270991161616621e+01
4.927233270202020066e+01 5.579537563131312794e+01 6.809840593434343248e+01
4.943619791666666430e+01 5.603705018939393767e+01 6.824932922979797922e+01
4.949258207070707272e+01 5.617834595959595845e+01 6.834517045454545325e+01
4.956443339646464352e+01 5.630401672979797922e+01 6.840250157828282340e+01
4.966461489898989612e+01 5.646638257575757791e+01 6.851357323232323893e+01
4.971468592171716949e+01 5.658463541666666430e+01 6.854912405303029743e+01
4.979695391414141170e+01 5.675291982323232531e+01 6.865443497474747403e+01
4.986225536616161946e+01 5.687866950757575779e+01 6.871263415404040131e+01
4.995675505050505194e+01 5.703740530303030454e+01 6.878645833333332860e+01
5.002008364898989612e+01 5.715897253787878896e+01 6.887645991161616621e+01
5.007153566919191690e+01 5.734962910353535648e+01 6.896500157828282340e+01
5.017700441919191690e+01 5.754963699494949481e+01 6.905768623737374412e+01
5.018205492424242209e+01 5.763581123737373701e+01 6.904648042929292728e+01
4.988332544191919027e+01 5.717025726010101039e+01 6.871949968434343248e+01
4.934568339646464352e+01 5.615013415404040131e+01 6.804754577020202078e+01
4.896358112373737725e+01 5.540187026515151558e+01 6.762945864898989612e+01
4.877663352272727337e+01 5.494992897727272663e+01 6.744708806818181301e+01
4.872723327020202078e+01 5.476511205808080973e+01 6.738206281565656752e+01
4.858400410353535648e+01 5.452434501262626299e+01 6.726171875000000000e+01
4.850205176767676818e+01 5.433112373737373701e+01 6.714914772727273373e+01
4.852304292929292728e+01 5.433775252525252597e+01 6.718781565656566102e+01
4.857236426767676818e+01 5.445683396464646364e+01 6.726901830808080263e+01
4.867021780303030454e+01 5.464165088383838054e+01 6.740269886363635976e+01
4.870269097222222143e+01 5.466118213383838054e+01 6.741149779040404155e+01
4.872376104797979934e+01 5.471066130050505194e+01 6.743967013888888573e+01
4.877217487373737725e+01 5.477833017676767469e+01 6.746835542929292728e+01
4.885961174242424221e+01 5.493315972222222143e+01 6.758199179292928704e+01
4.893497474747474740e+01 5.508396464646464352e+01 6.769065656565656752e+01
4.898749210858586167e+01 5.524333175505050519e+01 6.777852746212121815e+01
4.915834122474747403e+01 5.544322127525252597e+01 6.791339172979797922e+01
4.924727746212121104e+01 5.560333806818182012e+01 6.800895675505050519e+01
4.928898358585858830e+01 5.572869318181817988e+01 6.805934343434343248e+01
4.930812026515151558e+01 5.587409248737373701e+01 6.813340435606060908e+01
4.944921875000000000e+01 5.604817708333333570e+01 6.827103061868686495e+01
4.951791351010101039e+01 5.622151199494949481e+01 6.835882260101010388e+01
4.957145675505050519e+01 5.635318023989898961e+01 6.840778882575757791e+01
4.969811395202020066e+01 5.656664299242424221e+01 6.855117582070707272e+01
4.975548453282828376e+01 5.671965751262626299e+01 6.859702493686869218e+01
4.987922190656565391e+01 5.691804766414141170e+01 6.870908301767676107e+01
4.995549242424242209e+01 5.708096590909090651e+01 6.881234217171717660e+01
5.002142518939393767e+01 5.724475220959595845e+01 6.890100220959595845e+01
5.019318181818182012e+01 5.746070075757575779e+01 6.898137626262625588e+01
5.022435290404040131e+01 5.764054608585858830e+01 6.905468750000000000e+01
5.014910827020202078e+01 5.759118529040404155e+01 6.897170928030303116e+01
4.959734059343434609e+01 5.678499842171716949e+01 6.837638099747475451e+01
4.917582070707070585e+01 5.581234217171716949e+01 6.782449494949494806e+01
4.878689236111111427e+01 5.515889362373737725e+01 6.746618529040404155e+01
4.872699652777777857e+01 5.488072127525252597e+01 6.733873895202020776e+01
4.863403566919191690e+01 5.469274779040404155e+01 6.724104324494949481e+01
4.852998737373737725e+01 5.446448863636363313e+01 6.710385101010101039e+01
4.843635574494949481e+01 5.428042140151514872e+01 6.702016256313130782e+01
4.850623421717171624e+01 5.435471906565656752e+01 6.711276830808080263e+01
4.863502209595959869e+01 5.455910669191919027e+01 6.726570391414141170e+01
4.869661458333333570e+01 5.467972695707070585e+01 6.734039614898989612e+01
4.872206439393939092e+01 5.476515151515151558e+01 6.736726641414141170e+01
4.879782196969696884e+01 5.486016414141413833e+01 6.742976641414141170e+01
4.880890940656565391e+01 5.495348011363636687e+01 6.749025410353534937e+01
4.892041508838384090e+01 5.515842013888888573e+01 6.764295296717172334e+01
4.899672506313131493e+01 5.535594223484848442e+01 6.771152935606060908e+01
4.914539930555555713e+01 5.556395991161615910e+01 6.787993213383838054e+01
4.920620265151514872e+01 5.576649305555555713e+01 6.796614583333332860e+01
4.932642834595959869e+01 5.594211647727272663e+01 6.807137784090909349e+01
4.940044981060606233e+01 5.609142203282828376e+01 6.813214172979797922e+01
4.949258207070707272e+01 5.629703282828283051e+01 6.824431818181818699e+01
4.960464015151514872e+01 5.647743055555555713e+01 6.831912878787878185e+01
4.963261521464646364e+01 5.665234375000000000e+01 6.841923137626262985e+01
4.978645833333333570e+01 5.689898989898989612e+01 6.854087752525252597e+01
4.986651672979797922e+01 5.707721748737373701e+01 6.860878314393939092e+01
4.993848642676767469e+01 5.727402935606060908e+01 6.869827178030303116e+01
5.001092960858586167e+01 5.746231849747474740e+01 6.878113162878787534e+01
5.008846275252525260e+01 5.764938446969696884e+01 6.885456123737374412e+01
5.023847853535353636e+01 5.783743686868687206e+01 6.896843434343433898e+01
5.022979797979797922e+01 5.800568181818182012e+01 6.900047348484848442e+01
5.036446496212121104e+01 5.824846117424242209e+01 6.912693339646465063e+01
5.044172190656565391e+01 5.842625473484848442e+01 6.920734690656566102e+01
5.036864741161615910e+01 5.837354008838384090e+01 6.909307922979797922e+01
4.992033617424242209e+01 5.761178188131312794e+01 6.847573390151515582e+01
4.951152146464646364e+01 5.683254419191919027e+01 6.806139520202020776e+01
4.922064393939393767e+01 5.633317550505050519e+01 6.784911616161616621e+01
4.921622474747474740e+01 5.613746843434343248e+01 6.778835227272726627e+01
4.918363320707070585e+01 5.603843118686868507e+01 6.773413825757575069e+01
4.907437657828283051e+01 5.580938289141413833e+01 6.764145359848484418e+01
4.903290719696969546e+01 5.578369633838384090e+01 6.762934027777777146e+01
4.912724905303030454e+01 5.585089172979797922e+01 6.769180082070707272e+01
4.921583017676767469e+01 5.601870265151514872e+01 6.779553345959595845e+01
4.921480429292929415e+01 5.605666035353535648e+01 6.780902777777777146e+01
4.922380050505050519e+01 5.608791035353535648e+01 6.783128156565656752e+01
4.923457228535353636e+01 5.612282986111111427e+01 6.781585385101010388e+01
4.925651041666666430e+01 5.623757102272727337e+01 6.786683238636364024e+01
4.942759627525252597e+01 5.643122632575757791e+01 6.794669349747475451e+01
4.943244949494949481e+01 5.655429292929292728e+01 6.803740530303029743e+01
4.954304766414141170e+01 5.673165246212121104e+01 6.814610953282827666e+01
4.958167613636363313e+01 5.688770517676767469e+01 6.821030618686869218e+01
4.961762152777777857e+01 5.703776041666666430e+01 6.827592329545454675e+01
4.972107796717171624e+01 5.715668402777777857e+01 6.834876104797979224e+01
4.979726957070707272e+01 5.732283775252525260e+01 6.839322916666667140e+01
4.991260258838384090e+01 5.746878945707070585e+01 6.849325284090909349e+01
4.994081439393939092e+01 5.758175505050505194e+01 6.853267045454545325e+01
4.999506786616161946e+01 5.777789614898989612e+01 6.864216382575757791e+01
5.011004577020202078e+01 5.790297506313131493e+01 6.868122632575757791e+01
5.013999368686868507e+01 5.806218434343434609e+01 6.874873737373737015e+01
5.022060448232323182e+01 5.819977114898989612e+01 6.879131155303029743e+01
5.025359059343434609e+01 5.837480271464646364e+01 6.890147569444444287e+01
5.036955492424242209e+01 5.855200441919191690e+01 6.898587436868686495e+01
5.019377367424242209e+01 5.837969539141413833e+01 6.882698074494949481e+01
4.982398200757575779e+01 5.768146306818182012e+01 6.828736584595959869e+01
4.944831123737373701e+01 5.691137941919191690e+01 6.784130366161616621e+01
4.923287563131312794e+01 5.646235795454545325e+01 6.763691603535353636e+01
4.913119476010101039e+01 5.624120107323232531e+01 6.756853693181818699e+01
4.908968592171716949e+01 5.610089172979797922e+01 6.753349905303029743e+01
4.897151199494949481e+01 5.588312815656565391e+01 6.742353219696970257e+01
4.899388415404040131e+01 5.588466698232323182e+01 6.745474273989898961e+01
4.904580965909090651e+01 5.596878945707070585e+01 6.754754577020202078e+01
4.909035669191919027e+01 5.605358270202020066e+01 6.758404356060606233e+01
4.912322443181817988e+01 5.606072443181817988e+01 6.760460069444444287e+01
4.912701231060606233e+01 5.603310448232323182e+01 6.759339488636364024e+01
4.911091382575757791e+01 5.606277619949494806e+01 6.760570549242424931e+01
4.911371527777777857e+01 5.610361426767676818e+01 6.760913825757575069e+01
4.924270044191919027e+01 5.627584438131312794e+01 6.774285827020202078e+01
4.930993529040404155e+01 5.639942392676767469e+01 6.782303503787878185e+01
4.937480271464646364e+01 5.654036458333333570e+01 6.790147569444444287e+01
4.938663983585858830e+01 5.660681029040404155e+01 6.790005523989898961e+01
4.926578282828283051e+01 5.648721590909090651e+01 6.772064393939393767e+01
4.927217487373737725e+01 5.646788194444444287e+01 6.766343118686869218e+01
4.932563920454545325e+01 5.651866319444444287e+01 6.765471117424242209e+01
4.946338383838384090e+01 5.678851010101010388e+01 6.781107954545454675e+01
4.955129419191919027e+01 5.694633838383838054e+01 6.789977904040404155e+01
4.965305397727272663e+01 5.719440498737373701e+01 6.804715119949494806e+01
4.975651041666666430e+01 5.743075284090909349e+01 6.817696496212121815e+01
4.981833964646464352e+01 5.755255681818182012e+01 6.824084595959595845e+01
4.963565340909090651e+01 5.728606376262626299e+01 6.801507260101010388e+01
4.921413352272727337e+01 5.655472695707070585e+01 6.749617266414141170e+01
4.884943181818182012e+01 5.586079545454545325e+01 6.713636363636364024e+01
4.865108112373737725e+01 5.540550031565656752e+01 6.696010890151515582e+01
4.856904987373737725e+01 5.517005997474747403e+01 6.687223800505050519e+01
4.843844696969696884e+01 5.491745580808080973e+01 6.677730429292928704e+01
4.838727114898989612e+01 5.473654513888888573e+01 6.671508049242424931e+01
4.841299715909090651e+01 5.472155145202020066e+01 6.675106534090909349e+01
4.841938920454545325e+01 5.481585385101010388e+01 6.682485006313130782e+01
4.849195075757575779e+01 5.489662247474747403e+01 6.686789772727273373e+01
4.845324337121212466e+01 5.488979640151514872e+01 6.687306660353534937e+01
4.848851799242424221e+01 5.487614425505050519e+01 6.687330334595959869e+01
4.854715119949494806e+01 5.495103377525252597e+01 6.692499210858585457e+01
4.862488162878787534e+01 5.506522253787878896e+01 6.701676925505050519e+01
4.869231376262626299e+01 5.521283143939393767e+01 6.709272411616161946e+01
4.877525252525252597e+01 5.533065025252525260e+01 6.715009469696970257e+01
4.885858585858586167e+01 5.551325757575757791e+01 6.726104797979797922e+01
4.890502683080808310e+01 5.560688920454545325e+01 6.729659880050505194e+01
4.896338383838384090e+01 5.573768939393939092e+01 6.736111111111111427e+01
4.904983428030303116e+01 5.583960700757575779e+01 6.739721433080808310e+01
4.911000631313131493e+01 5.599005681818182012e+01 6.749305555555555713e+01
4.923244160353535648e+01 5.613458806818182012e+01 6.757003630050505194e+01
4.922084122474747403e+01 5.624293718434343248e+01 6.759883996212121815e+01
4.933439867424242209e+01 5.639532039141413833e+01 6.767499210858585457e+01
4.932863794191919027e+01 5.650035511363636687e+01 6.770947758838383379e+01
4.947908775252525260e+01 5.670525568181817988e+01 6.783136047979797922e+01
4.950978535353535648e+01 5.679940025252525260e+01 6.788383838383838054e+01
4.957879577020202078e+01 5.694006470959595845e+01 6.794574652777777146e+01
4.929734848484848442e+01 5.655871212121212466e+01 6.765530303030303116e+01
4.881719539141413833e+01 5.568872316919191690e+01 6.704210069444444287e+01
4.843544823232323182e+01 5.488399621212121104e+01 6.665845959595959869e+01
4.815913036616161946e+01 5.434615688131312794e+01 6.639318970959595845e+01
4.805812026515151558e+01 5.408447758838384090e+01 6.629612531565656752e+01
4.790893308080808310e+01 5.375994318181817988e+01 6.612547348484848442e+01
4.775911458333333570e+01 5.351937342171716949e+01 6.597896938131313505e+01
4.780452967171716949e+01 5.344767992424242209e+01 6.597624684343433898e+01
4.789066445707070585e+01 5.358068970959595845e+01 6.608447758838383379e+01
4.795213857323232531e+01 5.367783301767676818e+01 6.615463226010101039e+01
4.797581281565656752e+01 5.374932922979797922e+01 6.620276988636364024e+01
4.802063604797979934e+01 5.380488478535353636e+01 6.622107796717172334e+01
4.802750157828283051e+01 5.384852430555555713e+01 6.624704071969696884e+01
4.807745422979797922e+01 5.394787720959595845e+01 6.631861584595959869e+01
4.813715277777777857e+01 5.411347853535353636e+01 6.642487373737374412e+01
4.826601957070707272e+01 5.426538825757575779e+01 6.654427083333332860e+01
4.833641098484848442e+01 5.442732007575757791e+01 6.662697285353534937e+01
4.845249368686868507e+01 5.460243055555555713e+01 6.672900883838383379e+01
4.849009627525252597e+01 5.476424400252525260e+01 6.681048768939393767e+01
4.854932133838384090e+01 5.488028724747474740e+01 6.684303977272726627e+01
4.865964330808080973e+01 5.505263573232323182e+01 6.696409406565656752e+01
4.873488794191919027e+01 5.518864425505050519e+01 6.702513415404040131e+01
4.881830018939393767e+01 5.539358428030303116e+01 6.711501736111111427e+01
4.890774936868687206e+01 5.555989583333333570e+01 6.719531250000000000e+01
4.900927241161615910e+01 5.575785195707070585e+01 6.728689236111111427e+01
4.914078282828283051e+01 5.592345328282828376e+01 6.737578914141414543e+01
4.917144097222222143e+01 5.607942708333333570e+01 6.746358112373737015e+01
4.929955808080808310e+01 5.624226641414141170e+01 6.754829545454545325e+01
4.932599431818182012e+01 5.634998421717171624e+01 6.758862058080808310e+01
4.939729324494949481e+01 5.657311395202020066e+01 6.770442708333332860e+01
4.948978061868687206e+01 5.671263415404040131e+01 6.776661142676768179e+01
4.952706755050505194e+01 5.685108901515151558e+01 6.785724431818181301e+01
4.933810763888888573e+01 5.661493844696969546e+01 6.758937026515151558e+01
4.887144886363636687e+01 5.578148674242424221e+01 6.702075441919191690e+01
4.842396622474747403e+01 5.497352430555555713e+01 6.655543718434343248e+01
4.821922348484848442e+01 5.449431818181817988e+01 6.634958964646465063e+01
4.814263731060606233e+01 5.424285827020202078e+01 6.626779513888888573e+01
4.797967960858586167e+01 5.394795612373737725e+01 6.610767834595959869e+01
4.788517992424242209e+01 5.372672032828283051e+01 6.598287563131313505e+01
4.787227746212121104e+01 5.365621054292929415e+01 6.599711963383838054e+01
4.792376893939393767e+01 5.376815025252525260e+01 6.609043560606060908e+01
4.810669191919191690e+01 5.393623737373737725e+01 6.622679924242424931e+01
4.803089488636363313e+01 5.398181029040404155e+01 6.624285827020202078e+01
4.808597695707070585e+01 5.403247316919191690e+01 6.626637468434343248e+01
4.812527619949494806e+01 5.405835700757575779e+01 6.626432291666667140e+01
4.821113478535353636e+01 5.419251104797979934e+01 6.636454387626262985e+01
4.828215751262626299e+01 5.432745422979797922e+01 6.645924084595959869e+01
4.838762626262626299e+01 5.451909722222222143e+01 6.656960227272726627e+01
4.844898200757575779e+01 5.469487847222222143e+01 6.665573705808080263e+01
4.854529671717171624e+01 5.485006313131312794e+01 6.675615530303029743e+01
4.865699968434343248e+01 5.500469539141413833e+01 6.687401357323231821e+01
4.869803503787878896e+01 5.512448705808080973e+01 6.686501736111111427e+01
4.875879892676767469e+01 5.526511205808080973e+01 6.700185448232323893e+01
4.882942708333333570e+01 5.540029198232323182e+01 6.707358743686869218e+01
4.888912563131312794e+01 5.557978219696969546e+01 6.716627209595959869e+01
4.901021938131312794e+01 5.577616003787878896e+01 6.726085069444444287e+01
4.905496369949494806e+01 5.588308869949494806e+01 6.730259627525252597e+01
4.916934974747474740e+01 5.607275883838384090e+01 6.739362373737374412e+01
4.922332702020202078e+01 5.621338383838384090e+01 6.744444444444444287e+01
4.930768623737373701e+01 5.637634154040404155e+01 6.753274936868686495e+01
4.937472380050505194e+01 5.654691445707070585e+01 6.761446496212121815e+01
4.951953125000000000e+01 5.675611584595959869e+01 6.771618529040404155e+01
4.947948232323232531e+01 5.678898358585858830e+01 6.772616792929292728e+01
4.915033143939393767e+01 5.626665088383838054e+01 6.733041351010101039e+01
4.867759627525252597e+01 5.543659248737373701e+01 6.678555082070707272e+01
4.837811710858586167e+01 5.480756786616161946e+01 6.645308554292928704e+01
4.821346275252525260e+01 5.446819760101010388e+01 6.635503472222222854e+01
4.813754734848485128e+01 5.426554608585858830e+01 6.628085542929292728e+01
4.806036931818182012e+01 5.405342487373737725e+01 6.619452335858585457e+01
4.805456912878787534e+01 5.395624210858586167e+01 6.618083175505050519e+01
4.808510890151514872e+01 5.401156092171716949e+01 6.622510258838383379e+01
4.817479482323232531e+01 5.414212436868687206e+01 6.635692866161616621e+01
4.818071338383838054e+01 5.418213383838384090e+01 6.635006313131313505e+01
4.820020517676767469e+01 5.418757891414141170e+01 6.636608270202020776e+01
4.815127840909090651e+01 5.418789457070707272e+01 6.633956755050505194e+01
4.822474747474747403e+01 5.421859217171716949e+01 6.638652146464646364e+01
4.829872948232323182e+01 5.433850220959595845e+01 6.648307291666667140e+01
4.836702967171716949e+01 5.445951704545454675e+01 6.655358270202020776e+01
4.846448863636363313e+01 5.465009469696969546e+01 6.668497474747475451e+01
4.850402462121212466e+01 5.477406881313131493e+01 6.673587436868686495e+01
4.860578440656565391e+01 5.494243213383838054e+01 6.681364425505050519e+01
4.869842960858586167e+01 5.509331597222222143e+01 6.692933238636364024e+01
4.875228851010101039e+01 5.525134154040404155e+01 6.696898674242424931e+01
4.876499368686868507e+01 5.536458333333333570e+01 6.702872474747475451e+01
4.885428503787878896e+01 5.546050347222222143e+01 6.709828756313130782e+01
4.900307765151514872e+01 5.563802083333333570e+01 6.721725063131313505e+01
4.905058396464646364e+01 5.578779987373737725e+01 6.729221906565656752e+01
4.918454071969696884e+01 5.601534880050505194e+01 6.741639046717172334e+01
4.920746527777777857e+01 5.614496527777777857e+01 6.746646148989898961e+01
4.912097537878787534e+01 5.601396780303030454e+01 6.736434659090909349e+01
4.868410669191919027e+01 5.528906250000000000e+01 6.688249684343433898e+01
4.830744949494949481e+01 5.446843434343434609e+01 6.638257575757575069e+01
4.805204387626262275e+01 5.397975852272727337e+01 6.620119160353534937e+01
4.797285353535353636e+01 5.370123106060606233e+01 6.606392045454545325e+01
4.784027777777777857e+01 5.353267045454545325e+01 6.600394570707071296e+01
4.781877367424242209e+01 5.333976483585858830e+01 6.593067392676768179e+01
4.781068497474747403e+01 5.328511679292929415e+01 6.591106376262625588e+01
4.788991477272727337e+01 5.339149305555555713e+01 6.602217487373737015e+01
4.796598800505050519e+01 5.351365214646464352e+01 6.611040088383838054e+01
4.798686079545454675e+01 5.356009311868687206e+01 6.614973958333332860e+01
4.796906565656565391e+01 5.356549873737373701e+01 6.612342171717172334e+01
4.802544981060606233e+01 5.363245738636363313e+01 6.618359375000000000e+01
4.808080808080808310e+01 5.372837752525252597e+01 6.627556818181818699e+01
4.818742108585858830e+01 5.390285669191919027e+01 6.639196654040404155e+01
4.821113478535353636e+01 5.408297821969696884e+01 6.644235321969696884e+01
4.837464488636363313e+01 5.424554135101010388e+01 6.659197443181818699e+01
4.845943813131312794e+01 5.443134469696969546e+01 6.673374368686869218e+01
4.850883838383838054e+01 5.454940025252525260e+01 6.678582702020202078e+01
4.857508680555555713e+01 5.468793402777777857e+01 6.685728377525252597e+01
4.864153251262626299e+01 5.480283301767676818e+01 6.690889362373737015e+01
4.873184974747474740e+01 5.497601010101010388e+01 6.702825126262625588e+01
4.884745896464646364e+01 5.513944128787878896e+01 6.712413194444444287e+01
4.891512784090909349e+01 5.528428819444444287e+01 6.721642203282827666e+01
4.899857954545454675e+01 5.545849116161615910e+01 6.728267045454545325e+01
4.910077335858586167e+01 5.561071654040404155e+01 6.741848169191919737e+01
4.919065656565656752e+01 5.580097853535353636e+01 6.749384469696970257e+01
4.919933712121212466e+01 5.589820075757575779e+01 6.750299873737374412e+01
4.895127051767676818e+01 5.548820233585858830e+01 6.721926294191919737e+01
4.842365056818182012e+01 5.450793087121212466e+01 6.659836647727273373e+01
4.804865056818182012e+01 5.373504577020202078e+01 6.616149779040404155e+01
4.782942708333333570e+01 5.324625157828283051e+01 6.596405460858585457e+01
4.771066130050505194e+01 5.299680397727272663e+01 6.582713857323231821e+01
4.761229482323232531e+01 5.274266098484848442e+01 6.570099431818181301e+01
4.754813762626262275e+01 5.250173611111111427e+01 6.559958964646465063e+01
4.754032512626262275e+01 5.249534406565656752e+01 6.561718750000000000e+01
4.763920454545454675e+01 5.262594696969696884e+01 6.572695707070707272e+01
4.770667613636363313e+01 5.280705492424242209e+01 6.587050189393939092e+01
4.776195549242424221e+01 5.281703756313131493e+01 6.588300978535353636e+01
4.774356849747474740e+01 5.285215435606060908e+01 6.589176925505050519e+01
4.785617897727272663e+01 5.294945549242424221e+01 6.597123579545454675e+01
4.787038352272727337e+01 5.307540246212121104e+01 6.604509943181818699e+01
4.799427872474747403e+01 5.327063604797979934e+01 6.618162089646465063e+01
4.806388099747474740e+01 5.344156407828283051e+01 6.630377998737374412e+01
4.823153409090909349e+01 5.364693813131312794e+01 6.646338383838383379e+01
4.828136837121212466e+01 5.377758049242424221e+01 6.653231534090909349e+01
4.835610006313131493e+01 5.396752683080808310e+01 6.662614425505050519e+01
4.844389204545454675e+01 5.410424558080808310e+01 6.674376578282827666e+01
4.852363478535353636e+01 5.423559816919191690e+01 6.682682291666667140e+01
4.860629734848485128e+01 5.443205492424242209e+01 6.697340593434343248e+01
4.868098958333333570e+01 5.455946180555555713e+01 6.704967645202020776e+01
4.878768150252525260e+01 5.476968907828283051e+01 6.720103377525252597e+01
4.892069128787878896e+01 5.493773674242424221e+01 6.732583648989898961e+01
4.901736111111111427e+01 5.515183080808080973e+01 6.743686868686869218e+01
4.910396938131312794e+01 5.530141256313131493e+01 6.755062342171717660e+01
4.915530303030303116e+01 5.546669823232323182e+01 6.765104166666667140e+01
4.925761521464646364e+01 5.566070864898989612e+01 6.774483112373737015e+01
4.930093907828283051e+01 5.580377998737373701e+01 6.781261837121212466e+01
4.952355587121212466e+01 5.604912405303030454e+01 6.799214804292928704e+01
4.949597537878787534e+01 5.614954229797979934e+01 6.803085542929292728e+01
4.928799715909090651e+01 5.578752367424242209e+01 6.774917140151515582e+01
4.868682922979797922e+01 5.478815498737373701e+01 6.710018150252524549e+01
4.832520517676767469e+01 5.392226957070707272e+01 6.659209280303029743e+01
4.807938762626262275e+01 5.343418560606060908e+01 6.638857323232323893e+01
4.799660669191919027e+01 5.320162563131312794e+01 6.625497159090909349e+01
