5.042542613636363313e+01 6.209524936868687206e+01 6.443458017676768179e+01
5.038222064393939092e+01 6.200406407828283051e+01 6.437574968434343248e+01
5.032047032828283051e+01 6.190096275252525260e+01 6.436766098484848442e+01
5.030011047979797922e+01 6.173019255050505194e+01 6.433814709595959869e+01
5.022597064393939092e+01 6.152852746212121104e+01 6.428184185606060908e+01
5.019416824494949481e+01 6.148583491161615910e+01 6.437835385101010388e+01
5.026957070707070585e+01 6.149668560606060908e+01 6.442408459595959869e+01
5.025718118686868507e+01 6.154758522727272663e+01 6.436466224747475451e+01
5.025990372474747403e+01 6.151984690656565391e+01 6.438600852272726627e+01
5.028870738636363313e+01 6.152797506313131493e+01 6.441339172979797922e+01
5.029604640151514872e+01 6.154857165404040131e+01 6.442814867424242209e+01
5.030673926767676818e+01 6.163533775252525260e+01 6.449755366161616621e+01
5.037669665404040131e+01 6.177931660353535648e+01 6.458203125000000000e+01
5.048650568181817988e+01 6.191311553030303116e+01 6.467021780303029743e+01
5.055235953282828376e+01 6.204525726010101039e+01 6.472612847222222854e+01
5.060586332070707272e+01 6.216773200757575779e+01 6.476811079545454675e+01
5.063525883838384090e+01 6.227619949494949481e+01 6.480555555555555713e+01
5.073366477272727337e+01 6.239086174242424221e+01 6.486876578282827666e+01
5.074857954545454675e+01 6.250789141414141170e+01 6.490230429292928704e+01
5.083755523989898961e+01 6.261596433080808310e+01 6.497281407828282340e+01
5.087669665404040131e+01 6.273528251262626299e+01 6.501037720959595845e+01
5.093390940656565391e+01 6.286667455808080973e+01 6.505843592171717660e+01
5.096247632575757791e+01 6.295884627525252597e+01 6.509883996212121815e+01
5.080859375000000000e+01 6.276029829545454675e+01 6.491212910353534937e+01
5.047948232323232531e+01 6.221543560606060908e+01 6.454861111111111427e+01
5.032567866161615910e+01 6.174739583333333570e+01 6.434209280303029743e+01
5.024640940656565391e+01 6.152418718434343248e+01 6.435357481060606233e+01
5.021736900252525260e+01 6.144053819444444287e+01 6.434536773989898961e+01
5.021598800505050519e+01 6.135819128787878896e+01 6.435345643939393767e+01
5.019815340909090651e+01 6.131747159090909349e+01 6.434004103535353636e+01
5.021164772727272663e+01 6.133980429292929415e+01 6.437941919191919737e+01
4.993497474747474740e+01 6.106786616161615910e+01 6.415356691919191690e+01
4.994858743686868507e+01 6.109899779040404155e+01 6.419306344696970257e+01
4.995568970959595845e+01 6.112756470959595845e+01 6.417775410353534937e+01
4.998800505050505194e+01 6.113525883838384090e+01 6.419618055555555713e+01
5.000244633838384090e+01 6.116595643939393767e+01 6.425086805555555713e+01
5.001665088383838054e+01 6.124850063131312794e+01 6.429474431818181301e+01
5.007524463383838054e+01 6.139405776515151558e+01 6.439295296717172334e+01
5.014895044191919027e+01 6.151337594696969546e+01 6.445482165404040131e+01
5.024325284090909349e+01 6.164666193181817988e+01 6.450209122474747403e+01
5.029908459595959869e+01 6.181171085858586167e+01 6.457228535353534937e+01
5.033499053030303116e+01 6.191800820707070585e+01 6.462870896464646364e+01
5.032398200757575779e+01 6.201826862373737725e+01 6.462354008838383379e+01
5.040187026515151558e+01 6.213119476010101039e+01 6.467301925505050519e+01
5.044696969696969546e+01 6.229940025252525260e+01 6.472159090909090651e+01
5.052734375000000000e+01 6.244669349747474740e+01 6.479517834595959869e+01
5.058826546717171624e+01 6.260973011363636687e+01 6.489019097222222854e+01
5.071863162878787534e+01 6.277671243686868507e+01 6.497005208333332860e+01
5.076984690656565391e+01 6.289863478535353636e+01 6.503184185606060908e+01
5.076104797979797922e+01 6.303835227272727337e+01 6.508128156565656752e+01
5.087275094696969546e+01 6.322849589646464352e+01 6.521066130050505194e+01
5.096168718434343248e+01 6.335625789141413833e+01 6.526455965909090651e+01
5.103945707070707272e+01 6.350568181818182012e+01 6.533080808080808310e+01
5.109303977272727337e+01 6.367716224747474740e+01 6.541437815656566102e+01
5.117041508838384090e+01 6.384449968434343248e+01 6.550437973484848442e+01
5.125315656565656752e+01 6.396732954545454675e+01 6.556313131313130782e+01
5.111040088383838054e+01 6.385250946969696884e+01 6.542495265151515582e+01
5.076964962121212466e+01 6.329095643939393767e+01 6.502264835858585457e+01
5.053121054292929415e+01 6.277568655303030454e+01 6.472644412878787534e+01
5.047881155303030454e+01 6.254257417929292728e+01 6.463001104797979224e+01
5.044030145202020066e+01 6.246097695707070585e+01 6.466220801767676107e+01
5.048196811868687206e+01 6.244282670454545325e+01 6.470008680555555713e+01
5.043106849747474740e+01 6.238087910353535648e+01 6.474293718434343248e+01
5.051069286616161946e+01 6.242325599747474740e+01 6.479415246212121815e+01
5.052600220959595845e+01 6.248780776515151558e+01 6.483629261363635976e+01
5.057189078282828376e+01 6.248682133838384090e+01 6.486482007575757791e+01
5.053436710858586167e+01 6.250390625000000000e+01 6.485901988636364024e+01
5.057725694444444287e+01 6.249234532828283051e+01 6.484461805555555713e+01
5.057078598484848442e+01 6.251523042929292728e+01 6.487460542929292728e+01
5.064934501262626299e+01 6.258921243686868507e+01 6.494606218434343248e+01
5.066390467171716949e+01 6.270415088383838054e+01 6.497814078282827666e+01
5.073780776515151558e+01 6.281545928030303116e+01 6.506056660353534937e+01
5.076507260101010388e+01 6.291769255050505194e+01 6.509083017676768179e+01
5.087693339646464352e+01 6.306159248737373701e+01 6.518927556818181301e+01
5.088407512626262275e+01 6.312318497474747403e+01 6.521535669191919737e+01
5.089922664141413833e+01 6.322750946969696884e+01 6.525481376262625588e+01
5.096657986111111427e+01 6.334126420454545325e+01 6.533226799242424931e+01
5.103922032828283051e+01 6.347277462121212466e+01 6.539591224747475451e+01
5.111450441919191690e+01 6.359098800505050519e+01 6.546725063131313505e+01
5.104324494949494806e+01 6.355034722222222143e+01 6.539330808080808310e+01
5.080121527777777857e+01 6.320888573232323182e+01 6.514244002525252597e+01
5.064898989898989612e+01 6.279371843434343248e+01 6.490577651515151558e+01
5.050808869949494806e+01 6.248804450757575779e+01 6.483163667929292728e+01
5.052466066919191690e+01 6.237661773989898961e+01 6.487109375000000000e+01
5.051092960858586167e+01 6.235089172979797922e+01 6.486919981060606233e+01
5.056987847222222143e+01 6.234449968434343248e+01 6.490573705808080263e+01
5.056901041666666430e+01 6.239808238636363313e+01 6.494779829545454675e+01
5.063900726010101039e+01 6.245371685606060908e+01 6.500800978535353636e+01
5.061868686868687206e+01 6.250299873737373701e+01 6.501499368686869218e+01
5.062089646464646364e+01 6.249621212121212466e+01 6.503929924242424931e+01
5.062661773989898961e+01 6.251140309343434609e+01 6.504233743686869218e+01
5.065755208333333570e+01 6.255969854797979934e+01 6.506080334595959869e+01
5.073086332070707272e+01 6.264058554292929415e+01 6.510191761363635976e+01
5.075430082070707272e+01 6.274625157828283051e+01 6.515455334595959869e+01
5.076996527777777857e+01 6.284872159090909349e+01 6.524944760101010388e+01
5.089867424242424221e+01 6.301199494949494806e+01 6.530650252525252597e+01
5.093982796717171624e+01 6.313774463383838054e+01 6.535901988636364024e+01
5.098090277777777857e+01 6.324352904040404155e+01 6.541777146464646364e+01
5.101815025252525260e+01 6.334958964646464352e+01 6.547853535353534937e+01
5.111568813131312794e+01 6.347569444444444287e+01 6.553188131313130782e+01
5.112444760101010388e+01 6.356952335858586167e+01 6.558372790404040131e+01
5.121397569444444287e+01 6.370229640151514872e+01 6.564279513888888573e+01
5.121665877525252597e+01 6.382413983585858830e+01 6.571697443181818699e+01
5.133163667929292728e+01 6.396579071969696884e+01 6.580654198232323893e+01
5.133731849747474740e+01 6.407500789141414543e+01 6.582816445707071296e+01
5.141721906565656752e+01 6.419341856060606233e+01 6.592763573232323893e+01
5.146855271464646364e+01 6.434513099747475451e+01 6.599633049242424931e+01
5.153251262626262275e+01 6.448768939393939092e+01 6.604071969696970257e+01
5.158195233585858830e+01 6.456206597222222854e+01 6.608447758838383379e+01
5.135325915404040131e+01 6.421421243686869218e+01 6.579202178030303116e+01
5.099684343434343248e+01 6.353172348484848442e+01 6.537689393939393767e+01
5.078649779040404155e+01 6.298788667929292728e+01 6.513687657828282340e+01
5.067601799242424221e+01 6.264208491161615910e+01 6.513592960858585457e+01
5.067317708333333570e+01 6.248362531565656752e+01 6.514098011363635976e+01
5.062275094696969546e+01 6.231719539141413833e+01 6.510823074494949481e+01
5.057579703282828376e+01 6.215344854797979934e+01 6.506096117424242209e+01
5.059797190656565391e+01 6.211785827020202078e+01 6.507098327020202078e+01
5.063833648989898961e+01 6.216327335858586167e+01 6.515380366161616621e+01
5.063198390151514872e+01 6.219116950757575779e+01 6.518959122474747403e+01
5.064733270202020066e+01 6.217637310606060908e+01 6.518363320707071296e+01
5.063490372474747403e+01 6.216410195707070585e+01 6.519645675505050519e+01
5.062571022727272663e+01 6.214922664141413833e+01 6.520509785353534937e+01
5.066497001262626299e+01 6.220568970959595845e+01 6.524688289141414543e+01
5.068185763888888573e+01 6.227923768939393767e+01 6.528349905303029743e+01
5.068935448232323182e+01 6.239058554292929415e+01 6.533897569444444287e+01
5.079557291666666430e+01 6.249775094696969546e+01 6.542641256313130782e+01
5.086856849747474740e+01 6.260010258838384090e+01 6.551503314393939092e+01
5.091437815656565391e+01 6.271125315656565391e+01 6.552564709595959869e+01
5.093233112373737725e+01 6.279012784090909349e+01 6.557516571969696884e+01
5.100548453282828376e+01 6.290431660353535648e+01 6.564295296717172334e+01
5.105456912878787534e+01 6.303736584595959869e+01 6.568619791666667140e+01
5.107050978535353636e+01 6.314484690656565391e+01 6.575611584595959869e+01
5.115175189393939092e+01 6.327249053030303116e+01 6.580610795454545325e+01
5.122470801767676818e+01 6.341189236111111427e+01 6.585065498737374412e+01
5.119278724747474740e+01 6.330815972222222143e+01 6.577091224747475451e+01
5.094081439393939092e+01 6.279356060606060908e+01 6.544791666666667140e+01
5.065593434343434609e+01 6.225836489898989612e+01 6.519981060606060908e+01
5.053318339646464352e+01 6.195253314393939092e+01 6.511746369949494806e+01
5.051645359848485128e+01 6.178397253787878896e+01 6.510262784090909349e+01
5.043963068181817988e+01 6.167290088383838054e+01 6.506889204545454675e+01
5.042088857323232531e+01 6.155835700757575779e+01 6.505251736111111427e+01
5.043742108585858830e+01 6.151886047979797922e+01 6.506999684343433898e+01
5.045817550505050519e+01 6.154450757575757791e+01 6.511695075757575069e+01
5.048626893939393767e+01 6.158049242424242209e+01 6.513573232323231821e+01
5.044562815656565391e+01 6.154569128787878896e+01 6.513202335858585457e+01
5.045557133838384090e+01 6.153858901515151558e+01 6.512476325757575069e+01
5.048504577020202078e+01 6.155622632575757791e+01 6.514098011363635976e+01
5.051160037878787534e+01 6.161261047979797922e+01 6.518442234848484418e+01
5.056455176767676818e+01 6.171654040404040131e+01 6.525394570707071296e+01
5.067215119949494806e+01 6.189090119949494806e+01 6.534560448232323893e+01
5.070048137626262275e+01 6.203997001262626299e+01 6.540723642676768179e+01
5.079273200757575779e+01 6.217357165404040131e+01 6.547644412878787534e+01
5.086998895202020066e+01 6.232832228535353636e+01 6.557106218434343248e+01
5.092593907828283051e+01 6.245829387626262275e+01 6.565147569444444287e+01
5.096444917929292728e+01 6.260886205808080973e+01 6.571776357323231821e+01
5.100248579545454675e+01 6.276400726010101039e+01 6.574491003787878185e+01
5.112085700757575779e+01 6.293604008838384090e+01 6.587038352272726627e+01
5.122032828282828376e+01 6.309769570707070585e+01 6.594744318181818699e+01
5.125958806818182012e+01 6.327016256313131493e+01 6.600232796717172334e+01
5.135310132575757791e+01 6.345553188131312794e+01 6.610625789141414543e+01
5.141844223484848442e+01 6.361193970959595845e+01 6.617017834595959869e+01
5.150039457070707272e+01 6.377833017676767469e+01 6.622640467171717660e+01
5.148078440656565391e+01 6.394038036616161946e+01 6.628870738636364024e+01
5.163955965909090651e+01 6.415881470959595845e+01 6.636888415404040131e+01
5.163214172979797922e+01 6.429896622474747403e+01 6.644464172979797922e+01
5.172088068181817988e+01 6.447009154040404155e+01 6.652564709595959869e+01
5.179892676767676818e+01 6.464567550505050519e+01 6.660369318181818699e+01
5.188940183080808310e+01 6.479754577020202078e+01 6.666954703282827666e+01
5.198583491161615910e+01 6.497478693181818699e+01 6.674861900252524549e+01
5.197139362373737725e+01 6.504225852272726627e+01 6.676653251262625588e+01
5.174834280303030454e+01 6.469878472222222854e+01 6.647908775252524549e+01
5.142447916666666430e+01 6.402012310606060908e+01 6.609556502525252597e+01
5.120044191919191690e+01 6.349652777777777857e+01 6.591856060606060908e+01
5.113454861111111427e+01 6.326775568181817988e+01 6.591785037878787534e+01
5.113762626262626299e+01 6.316366792929292728e+01 6.594460227272726627e+01
5.113001104797979934e+01 6.311154513888888573e+01 6.597833806818181301e+01
5.113257575757575779e+01 6.303945707070707272e+01 6.595691287878787534e+01
5.117124368686868507e+01 6.300189393939393767e+01 6.599779040404040131e+01
5.117017834595959869e+01 6.305196496212121104e+01 6.601787405303029743e+01
5.123425662878787534e+01 6.307358743686868507e+01 6.606206597222222854e+01
5.122202493686868507e+01 6.307997948232323182e+01 6.605772569444444287e+01
5.122778566919191690e+01 6.305385890151514872e+01 6.605575284090909349e+01
5.125998263888888573e+01 6.311872632575757791e+01 6.609536773989898961e+01
5.131869476010101039e+01 6.320679450757575779e+01 6.618343592171717660e+01
5.133996212121212466e+01 6.333285984848485128e+01 6.625063131313130782e+01
5.141429924242424221e+01 6.343734217171716949e+01 6.628977272727273373e+01
5.141919191919191690e+01 6.357181186868687206e+01 6.633980429292928704e+01
5.152896148989898961e+01 6.370572916666666430e+01 6.642005997474747403e+01
5.151534880050505194e+01 6.384994476010101039e+01 6.644906092171717660e+01
5.160846748737373701e+01 6.396342329545454675e+01 6.650666824494949481e+01
5.160933554292929415e+01 6.407145675505050519e+01 6.654888731060606233e+01
5.170647885101010388e+01 6.420884627525252597e+01 6.663829703282827666e+01
5.171113478535353636e+01 6.432587594696970257e+01 6.665842013888888573e+01
5.182473169191919027e+01 6.447466856060606233e+01 6.670872790404040131e+01
5.184769570707070585e+01 6.465546085858585457e+01 6.678551136363635976e+01
5.186797664141413833e+01 6.466548295454545325e+01 6.674155618686869218e+01
5.159422348484848442e+01 6.428977272727273373e+01 6.645565025252524549e+01
5.138541666666666430e+01 6.377462121212121104e+01 6.617219065656566102e+01
5.126262626262626299e+01 6.345565025252525260e+01 6.609785353535353636e+01
5.127442392676767469e+01 6.338506155303030454e+01 6.615179135101010388e+01
5.132820391414141170e+01 6.335093118686868507e+01 6.616185290404040131e+01
5.130468750000000000e+01 6.336434659090909349e+01 6.620888573232323893e+01
5.131979955808080973e+01 6.343075284090909349e+01 6.626818970959595845e+01
5.141690340909090651e+01 6.353890467171716949e+01 6.633514835858585457e+01
5.145868844696969546e+01 6.358984375000000000e+01 6.635136521464646364e+01
5.144925820707070585e+01 6.361324179292929415e+01 6.634256628787878185e+01
5.140723642676767469e+01 6.363545612373737725e+01 6.635562657828282340e+01
5.145079703282828376e+01 6.367475536616161946e+01 6.636730587121212466e+01
5.146760574494949481e+01 6.374364741161615910e+01 6.640542140151515582e+01
5.154999210858586167e+01 6.386375473484848442e+01 6.646476483585858830e+01
5.154529671717171624e+01 6.396875000000000000e+01 6.652446338383838054e+01
5.167096748737373701e+01 6.413703440656566102e+01 6.659836647727273373e+01
5.171989425505050519e+01 6.426834753787878185e+01 6.664429450757575069e+01
5.174143781565656752e+01 6.440289614898989612e+01 6.666757417929292728e+01
5.182390309343434609e+01 6.454644097222222854e+01 6.674830334595959869e+01
5.188896780303030454e+01 6.471709280303029743e+01 6.678117108585858830e+01
5.190033143939393767e+01 6.481762941919191690e+01 6.684272411616161946e+01
5.196681660353535648e+01 6.497612847222222854e+01 6.686044034090909349e+01
5.200998263888888573e+01 6.508163667929292728e+01 6.693012152777777146e+01
5.211805555555555713e+01 6.524857954545454675e+01 6.701388888888888573e+01
5.212231691919191690e+01 6.539472853535353636e+01 6.706439393939393767e+01
5.218244949494949481e+01 6.553756313131313505e+01 6.713888888888888573e+01
5.229849273989898961e+01 6.571105587121212466e+01 6.722699652777777146e+01
5.235258838383838054e+01 6.584674873737374412e+01 6.729924242424242209e+01
5.238592960858586167e+01 6.598930713383838054e+01 6.734505208333332860e+01
5.239196654040404155e+01 6.599439709595959869e+01 6.730910669191919737e+01
5.206451231060606233e+01 6.553042140151515582e+01 6.691583806818181301e+01
5.178365688131312794e+01 6.490218592171717660e+01 6.654391571969696884e+01
5.156699810606060908e+01 6.449392361111111427e+01 6.634761679292928704e+01
5.157851957070707272e+01 6.431431502525252597e+01 6.635424558080808310e+01
5.154651988636363313e+01 6.422612847222222854e+01 6.636691130050505194e+01
5.152671243686868507e+01 6.418359375000000000e+01 6.636414930555555713e+01
5.153093434343434609e+01 6.416808712121212466e+01 6.637910353535353636e+01
5.156451231060606233e+01 6.419771938131313505e+01 6.642199337121212466e+01
5.158309659090909349e+01 6.422340593434343248e+01 6.645273042929292728e+01
5.158873895202020066e+01 6.418974905303029743e+01 6.641386521464646364e+01
5.152911931818182012e+01 6.415853851010101039e+01 6.640317234848484418e+01
5.154975536616161946e+01 6.413545612373737015e+01 6.640770991161616621e+01
5.157307449494949481e+01 6.417013888888888573e+01 6.643923611111111427e+01
5.161624053030303116e+01 6.426854482323231821e+01 6.645651830808080263e+01
5.167735953282828376e+01 6.439184816919191690e+01 6.653389362373737015e+01
5.173820233585858830e+01 6.449656723484848442e+01 6.659741950757575069e+01
5.175761521464646364e+01 6.461509627525252597e+01 6.664587279040404155e+01
5.182196969696969546e+01 6.470470328282827666e+01 6.669854797979797922e+01
5.183723958333333570e+01 6.483124210858585457e+01 6.671223958333332860e+01
5.188229955808080973e+01 6.491607481060606233e+01 6.673978061868686495e+01
5.191228693181817988e+01 6.503334122474747403e+01 6.679754577020202078e+01
5.197924558080808310e+01 6.513596906565656752e+01 6.682741477272726627e+01
5.197549715909090651e+01 6.521539614898989612e+01 6.681277619949494806e+01
5.186119002525252597e+01 6.497498421717172334e+01 6.666990214646465063e+01
5.146764520202020066e+01 6.436789772727273373e+01 6.626057449494949481e+01
5.130066287878787534e+01 6.386994949494949481e+01 6.605334595959595845e+01
5.123248106060606233e+01 6.362026515151514872e+01 6.600489267676768179e+01
5.127623895202020066e+01 6.351045612373737725e+01 6.603444602272726627e+01
5.121859217171716949e+01 6.344223484848485128e+01 6.601483585858585457e+01
5.122932449494949481e+01 6.337452651515151558e+01 6.603093434343433898e+01
5.126195549242424221e+01 6.338979640151514872e+01 6.607966382575757791e+01
5.128661616161615910e+01 6.343702651515151558e+01 6.611126893939393767e+01
5.131478851010101039e+01 6.348839962121212466e+01 6.615175189393939092e+01
5.130721275252525260e+01 6.347072285353535648e+01 6.613833648989898961e+01
5.129107481060606233e+01 6.346942077020202078e+01 6.611793718434343248e+01
5.131178977272727337e+01 6.348982007575757791e+01 6.613407512626262985e+01
5.135527146464646364e+01 6.356786616161615910e+01 6.616856060606060908e+01
5.137807765151514872e+01 6.368173926767676818e+01 6.625086805555555713e+01
5.141871843434343248e+01 6.380650252525252597e+01 6.629750631313130782e+01
5.150777304292929415e+01 6.395063920454545325e+01 6.638671875000000000e+01
5.155306976010101039e+01 6.407611268939393767e+01 6.640029198232323893e+01
5.161564867424242209e+01 6.420797821969696884e+01 6.649491003787878185e+01
5.159532828282828376e+01 6.427714646464646364e+01 6.648437500000000000e+01
5.168978851010101039e+01 6.443442234848484418e+01 6.651728219696970257e+01
5.172376104797979934e+01 6.457161458333332860e+01 6.656609059343433898e+01
5.181427556818182012e+01 6.468880208333332860e+01 6.663087910353534937e+01
5.185029987373737725e+01 6.482283775252524549e+01 6.667242739898989612e+01
5.192688604797979934e+01 6.496934185606060908e+01 6.676558554292928704e+01
5.196563289141413833e+01 6.512724905303029743e+01 6.683211016414141170e+01
5.205567392676767469e+01 6.528136837121212466e+01 6.691599589646465063e+01
5.209615688131312794e+01 6.538261521464646364e+01 6.696863162878787534e+01
5.213269412878787534e+01 6.555693655303029743e+01 6.704099589646465063e+01
5.217897727272727337e+01 6.571117424242424931e+01 6.710763888888888573e+01
5.224936868686868507e+01 6.584832702020202078e+01 6.711474116161616621e+01
5.232307449494949481e+01 6.597869318181818699e+01 6.718813131313130782e+01
5.240656565656565391e+01 6.611553030303029743e+01 6.726657196969696884e+01
5.233108428030303116e+01 6.600769412878787534e+01 6.714279513888888573e+01
5.192321654040404155e+01 6.534698547979797922e+01 6.666374684343433898e+01
5.157449494949494806e+01 6.456770833333332860e+01 6.622095959595959869e+01
5.139362373737373701e+01 6.406344696969696884e+01 6.601183712121212466e+01
5.127698863636363313e+01 6.380760732323232531e+01 6.598721590909090651e+01
5.125359059343434609e+01 6.368398832070707272e+01 6.598970170454545325e+01
5.125939078282828376e+01 6.354064078282828376e+01 6.598682133838383379e+01
5.125299873737373701e+01 6.343592171717171624e+01 6.597080176767676107e+01
5.120955650252525260e+01 6.343098958333333570e+01 6.597391887626262985e+01
5.121519886363636687e+01 6.341343118686868507e+01 6.600055239898989612e+01
5.119653566919191690e+01 6.339981849747474740e+01 6.598520359848484418e+01
5.120501893939393767e+01 6.336663510101010388e+01 6.594854797979797922e+01
5.117333491161615910e+01 6.334899779040404155e+01 6.595253314393939092e+01
5.118584280303030454e+01 6.337492108585858830e+01 6.596803977272726627e+01
5.123220486111111427e+01 6.345395359848485128e+01 6.602181976010101039e+01
5.133349116161615910e+01 6.359359217171716949e+01 6.613147095959595845e+01
5.134363162878787534e+01 6.370458491161615910e+01 6.618753945707071296e+01
5.147036773989898961e+01 6.383952809343434609e+01 6.624640940656566102e+01
5.142361111111111427e+01 6.394365530303030454e+01 6.628046085858585457e+01
5.150718118686868507e+01 6.402075441919191690e+01 6.631715593434343248e+01
5.154900568181817988e+01 6.420351957070707272e+01 6.635819128787878185e+01
5.159757733585858830e+01 6.430512152777777146e+01 6.639997632575757791e+01
5.163790246212121104e+01 6.443525094696970257e+01 6.643162089646465063e+01
5.170229640151514872e+01 6.456987847222222854e+01 6.648591382575757791e+01
5.176688762626262275e+01 6.470880681818181301e+01 6.658791035353534937e+01
5.179857165404040131e+01 6.484465751262625588e+01 6.664532039141414543e+01
5.183822601010101039e+01 6.494365530303029743e+01 6.666571969696970257e+01
5.170371685606060908e+01 6.473259943181818699e+01 6.647612847222222854e+01
5.132062815656565391e+01 6.405563446969696884e+01 6.603369633838383379e+01
5.109682765151514872e+01 6.342810921717171624e+01 6.576380997474747403e+01
5.095497948232323182e+01 6.307303503787878896e+01 6.566994160353534937e+01
5.096957859848485128e+01 6.300729955808080973e+01 6.570379577020202078e+01
5.097088068181817988e+01 6.290601325757575779e+01 6.569689078282827666e+01
5.095628156565656752e+01 6.285511363636363313e+01 6.569507575757575069e+01
5.098887310606060908e+01 6.289528093434343248e+01 6.575465593434343248e+01
5.104659880050505194e+01 6.295048137626262275e+01 6.580922506313130782e+01
5.104083806818182012e+01 6.300311710858586167e+01 6.583597695707071296e+01
5.106194760101010388e+01 6.299045138888888573e+01 6.583041351010101039e+01
5.105918560606060908e+01 6.300505050505050519e+01 6.581944444444444287e+01
5.106664299242424221e+01 6.302529198232323182e+01 6.585641571969696884e+01
5.111923926767676818e+01 6.310645517676767469e+01 6.591437815656566102e+01
5.118327809343434609e+01 6.325461647727272663e+01 6.599988162878787534e+01
5.123942550505050519e+01 6.341777146464646364e+01 6.606123737373737015e+01
5.135696811868687206e+01 6.358029513888888573e+01 6.616362847222222854e+01
5.138999368686868507e+01 6.372948232323232531e+01 6.622064393939393767e+01
5.148011363636363313e+01 6.390782828282828376e+01 6.628424873737374412e+01
5.148188920454545325e+01 6.404407354797979224e+01 6.634000157828282340e+01
5.158787089646464352e+01 6.416804766414141170e+01 6.639169034090909349e+01
5.161935763888888573e+01 6.435168087121212466e+01 6.645063920454545325e+01
5.169432607323232531e+01 6.449672506313130782e+01 6.651235006313130782e+01
5.176361268939393767e+01 6.465834122474747403e+01 6.657406092171717660e+01
5.184887941919191690e+01 6.480689709595959869e+01 6.664970012626262985e+01
5.187034406565656752e+01 6.497419507575757791e+01 6.672514204545454675e+01
5.196050347222222143e+01 6.512890625000000000e+01 6.679462594696970257e+01
5.201846590909090651e+01 6.530823863636364024e+01 6.689520202020202078e+01
5.210373263888888573e+01 6.548946496212121815e+01 6.698204703282827666e+01
5.215561868686868507e+01 6.564898989898989612e+01 6.704024621212121815e+01
5.224258207070707272e+01 6.579166666666667140e+01 6.710321969696970257e+01
5.227470012626262275e+01 6.595288825757575069e+01 6.716706123737374412e+01
5.232658617424242209e+01 6.612567077020202078e+01 6.720553188131313505e+01
5.231940498737373701e+01 6.618714488636364024e+01 6.719898200757575069e+01
5.206348642676767469e+01 6.573930713383838054e+01 6.683289930555555713e+01
5.164591224747474740e+01 6.499865845959595845e+01 6.635282512626262985e+01
5.137050189393939092e+01 6.438297032828282340e+01 6.603764204545454675e+01
5.130571338383838054e+01 6.410779671717172334e+01 6.597964015151515582e+01
5.134355271464646364e+01 6.404162720959595845e+01 6.600485321969696884e+01
5.136016414141413833e+01 6.404829545454545325e+01 6.606455176767676107e+01
5.137361900252525260e+01 6.405306976010101039e+01 6.607721748737374412e+01
5.138356218434343248e+01 6.412535511363635976e+01 6.615613162878787534e+01
5.140384311868687206e+01 6.419203756313130782e+01 6.619266887626262985e+01
5.142775410353535648e+01 6.419401041666667140e+01 6.618406723484848442e+01
5.142341382575757791e+01 6.416078756313130782e+01 6.616552241161616621e+01
5.139745107323232531e+01 6.412645991161616621e+01 6.613845486111111427e+01
5.142155934343434609e+01 6.414962121212121815e+01 6.615435606060606233e+01
5.148788667929292728e+01 6.423473011363635976e+01 6.622257733585858830e+01
5.155050505050505194e+01 6.435700757575757791e+01 6.629624368686869218e+01
5.161130839646464352e+01 6.451976799242424931e+01 6.638671875000000000e+01
5.166970486111111427e+01 6.464808238636364024e+01 6.644874526515151558e+01
5.168667140151514872e+01 6.478278882575757791e+01 6.651542771464646364e+01
5.171673768939393767e+01 6.488987531565656752e+01 6.656364425505050519e+01
5.176495422979797922e+01 6.500011837121212466e+01 6.658597695707071296e+01
5.184359217171716949e+01 6.508491161616161946e+01 6.662452651515151558e+01
5.183952809343434609e+01 6.517443970959595845e+01 6.666860006313130782e+01
5.187811710858586167e+01 6.530630523989898961e+01 6.672881155303029743e+01
5.196496212121212466e+01 6.546180555555555713e+01 6.679655934343433898e+01
5.198386205808080973e+01 6.551290246212121815e+01 6.680062342171717660e+01
5.175674715909090651e+01 6.515226483585858830e+01 6.651511205808080263e+01
5.140676294191919027e+01 6.449088541666667140e+01 6.609726167929292728e+01
5.122699652777777857e+01 6.398520359848485128e+01 6.584978693181818699e+01
5.118102904040404155e+01 6.375189393939393767e+01 6.580776515151515582e+01
5.117858270202020066e+01 6.373098169191919027e+01 6.586671401515151558e+01
5.122679924242424221e+01 6.370754419191919027e+01 6.590056818181818699e+01
5.118406723484848442e+01 6.376850536616161946e+01 6.596815814393939092e+01
5.130346433080808310e+01 6.388095801767676818e+01 6.605898832070707272e+01
5.129671717171716949e+01 6.395217803030303116e+01 6.608869949494949481e+01
5.132473169191919027e+01 6.396393623737373701e+01 6.604127209595959869e+01
5.125520833333333570e+01 6.388699494949494806e+01 6.605523989898989612e+01
5.131857638888888573e+01 6.390317234848485128e+01 6.600828598484848442e+01
5.129872948232323182e+01 6.395087594696969546e+01 6.604178503787878185e+01
5.137535511363636687e+01 6.404770359848484418e+01 6.610057607323231821e+01
5.137866950757575779e+01 6.414571496212121815e+01 6.614618844696970257e+01
5.147573390151514872e+01 6.428349905303029743e+01 6.624846117424242209e+01
5.152039930555555713e+01 6.447320864898989612e+01 6.634647253787878185e+01
5.161864741161615910e+01 6.463048453282827666e+01 6.640589488636364024e+01
5.162673611111111427e+01 6.475457702020202078e+01 6.646480429292928704e+01
5.171160827020202078e+01 6.488600852272726627e+01 6.654099589646465063e+01
5.173042929292929415e+01 6.498074494949494806e+01 6.655886994949494806e+01
5.185854640151514872e+01 6.513064236111111427e+01 6.664752998737374412e+01
5.187847222222222143e+01 6.524116161616161946e+01 6.668166035353534937e+01
5.193118686868687206e+01 6.536852904040404155e+01 6.672821969696970257e+01
5.198599273989898961e+01 6.550082859848484418e+01 6.679044349747475451e+01
5.206522253787878896e+01 6.566007733585858830e+01 6.683984375000000000e+01
5.210550820707070585e+01 6.579932133838383379e+01 6.688202335858585457e+01
5.217254577020202078e+01 6.590439551767676107e+01 6.694858743686869218e+01
5.223374368686868507e+01 6.607938762626262985e+01 6.702146464646465063e+01
5.226929450757575779e+01 6.622557607323231821e+01 6.708321496212121815e+01
5.225023674242424221e+01 6.620525568181818699e+01 6.701491477272726627e+01
5.184990530303030454e+01 6.561032196969696884e+01 6.655129419191919737e+01
5.141970486111111427e+01 6.473394097222222854e+01 6.599262152777777146e+01
5.114433396464646364e+01 6.409209280303029743e+01 6.572466856060606233e+01
5.104805871212121104e+01 6.372182765151514872e+01 6.564480744949494806e+01
5.105954071969696884e+01 6.351392834595959869e+01 6.565360637626262985e+01
5.100434027777777857e+01 6.343252840909090651e+01 6.564480744949494806e+01
5.098595328282828376e+01 6.332291666666666430e+01 6.561205808080808310e+01
5.094385258838384090e+01 6.325508996212121104e+01 6.563987531565656752e+01
5.096997316919191690e+01 6.326337594696969546e+01 6.564389993686869218e+01
5.095095486111111427e+01 6.325572127525252597e+01 6.565092329545454675e+01
5.097316919191919027e+01 6.319586489898989612e+01 6.562389520202020776e+01
5.093473800505050519e+01 6.315932765151514872e+01 6.560645517676768179e+01
5.091970486111111427e+01 6.315108112373737725e+01 6.558858112373737015e+01
5.092708333333333570e+01 6.317077020202020066e+01 6.565435606060606233e+01
5.105310921717171624e+01 6.328101325757575779e+01 6.570209911616161946e+01
5.106774779040404155e+01 6.341118213383838054e+01 6.577071496212121815e+01
5.113352272727272663e+01 6.352746212121212466e+01 6.586395202020202078e+01
5.118809185606060908e+01 6.369740372474747403e+01 6.591788983585858830e+01
5.124779040404040131e+01 6.377572601010101039e+01 6.594886363636364024e+01
5.126712436868687206e+01 6.391248421717171624e+01 6.598982007575757791e+01
5.132236426767676818e+01 6.401964962121212466e+01 6.602943497474747403e+01
5.136276830808080973e+01 6.414622790404040131e+01 6.610345643939393767e+01
5.143706597222222143e+01 6.422889046717172334e+01 6.613608743686869218e+01
5.147889046717171624e+01 6.436446496212121815e+01 6.619637784090909349e+01
5.153472222222222143e+01 6.446938131313130782e+01 6.624936868686869218e+01
5.159509154040404155e+01 6.465838068181818699e+01 6.633940972222222854e+01
5.164457070707070585e+01 6.472064393939393767e+01 6.634706439393939092e+01
5.139141414141413833e+01 6.440514520202020776e+01 6.607575757575757791e+01
5.097735164141413833e+01 6.364228219696969546e+01 6.558404356060606233e+01
5.074514678030303116e+01 6.293343592171716949e+01 6.530196496212121815e+01
5.058510890151514872e+01 6.252418718434343248e+01 6.517712279040404155e+01
5.052091224747474740e+01 6.237744633838384090e+01 6.517905618686869218e+01
5.051479640151514872e+01 6.227142518939393767e+01 6.516299715909090651e+01
5.050082859848485128e+01 6.217617582070707272e+01 6.515723642676768179e+01
5.052852746212121104e+01 6.218446180555555713e+01 6.516852114898989612e+01
5.051463857323232531e+01 6.223480902777777857e+01 6.521523832070707272e+01
5.055579229797979934e+01 6.226160037878787534e+01 6.524266098484848442e+01
5.054217960858586167e+01 6.224640940656565391e+01 6.523362531565656752e+01
5.053357796717171624e+01 6.220340119949494806e+01 6.521476483585858830e+01
5.056277619949494806e+01 6.223228377525252597e+01 6.522533933080808310e+01
5.059165877525252597e+01 6.228752367424242209e+01 6.526353377525252597e+01
5.066757417929292728e+01 6.241394412878787534e+01 6.537290877525252597e+01
5.075067077020202078e+01 6.254186395202020066e+01 6.543959122474747403e+01
5.083293876262626299e+01 6.268142361111111427e+01 6.554190340909090651e+01
5.089409722222222143e+01 6.281376262626262275e+01 6.560274621212121815e+01
5.094562815656565391e+01 6.298003472222222143e+01 6.564370265151515582e+01
5.102197758838384090e+01 6.311099273989898961e+01 6.571721117424242209e+01
5.100741792929292728e+01 6.321906565656565391e+01 6.576436237373737015e+01
5.108254419191919027e+01 6.335763888888888573e+01 6.578598484848484418e+01
5.111525410353535648e+01 6.347431344696969546e+01 6.583258364898989612e+01
5.119243213383838054e+01 6.362551294191919027e+01 6.593027935606060908e+01
5.119712752525252597e+01 6.375094696969696884e+01 6.596654040404040131e+01
5.132619160353535648e+01 6.391867897727272663e+01 6.602758049242424931e+01
5.132729640151514872e+01 6.410286458333332860e+01 6.611943655303029743e+01
5.143955176767676818e+01 6.426815025252524549e+01 6.618828914141414543e+01
5.147048611111111427e+01 6.440167297979797922e+01 6.625457702020202078e+01
5.156013257575757791e+01 6.454024621212121815e+01 6.632244318181818699e+01
5.161328125000000000e+01 6.472455018939393767e+01 6.639942392676768179e+01
5.167921401515151558e+01 6.486103219696970257e+01 6.646188446969696884e+01
5.159327651515151558e+01 6.477335858585858830e+01 6.634169823232323893e+01
5.116749526515151558e+01 6.411178188131313505e+01 6.583147885101010388e+01
5.073741319444444287e+01 6.325098642676767469e+01 6.536272885101010388e+01
5.058929135101010388e+01 6.269393150252525260e+01 6.516568023989898961e+01
5.049479166666666430e+01 6.245912247474747403e+01 6.512768308080808310e+01
5.054794034090909349e+01 6.238285195707070585e+01 6.513569286616161946e+01
5.054533617424242209e+01 6.232279829545454675e+01 6.518027935606060908e+01
5.049909248737373701e+01 6.227623895202020066e+01 6.517522885101010388e+01
5.053862847222222143e+01 6.230819917929292728e+01 6.519992897727273373e+01
5.056664299242424221e+01 6.232358743686868507e+01 6.521626420454545325e+01
5.050272253787878896e+01 6.231175031565656752e+01 6.519337910353534937e+01
5.051203440656565391e+01 6.223899147727272663e+01 6.517475536616161946e+01
5.048252051767676818e+01 6.223520359848485128e+01 6.516102430555555713e+01
5.051578282828283051e+01 6.225236742424242209e+01 6.519207702020202078e+01
5.054127209595959869e+01 6.231557765151514872e+01 6.523240214646465063e+01
5.060562657828283051e+01 6.243627683080808310e+01 6.529091698232323893e+01
5.063660037878787534e+01 6.260866477272727337e+01 6.538707386363635976e+01
5.073070549242424221e+01 6.275927241161615910e+01 6.545229640151515582e+01
5.078819444444444287e+01 6.287279040404040131e+01 6.551199494949494806e+01
5.088636363636363313e+01 6.302746212121212466e+01 6.558207070707071296e+01
5.090179135101010388e+01 6.314026988636363313e+01 6.562038352272726627e+01
5.098094223484848442e+01 6.326077178030303116e+01 6.566560132575757791e+01
5.098161300505050519e+01 6.341453598484848442e+01 6.575402462121212466e+01
5.112626262626262275e+01 6.357623106060606233e+01 6.584154040404040131e+01
5.115258049242424221e+01 6.373212594696969546e+01 6.588900726010101039e+01
5.110574494949494806e+01 6.366382575757575779e+01 6.579955808080808310e+01
5.075745738636363313e+01 6.308211016414141170e+01 6.539618844696970257e+01
5.042700441919191690e+01 6.237129103535353636e+01 6.503890467171717660e+01
5.025477430555555713e+01 6.190692077020202078e+01 6.483621369949494806e+01
5.019732481060606233e+01 6.168169981060606233e+01 6.479028566919191690e+01
5.020292771464646364e+01 6.164153251262626299e+01 6.480330650252524549e+01
5.019866635101010388e+01 6.161485953282828376e+01 6.483424084595959869e+01
5.020083648989898961e+01 6.167479482323232531e+01 6.489543876262625588e+01
5.027986900252525260e+01 6.174577809343434609e+01 6.493959122474747403e+01
5.030405618686868507e+01 6.177880366161615910e+01 6.494878472222222854e+01
5.026530934343434609e+01 6.176057449494949481e+01 6.492850378787878185e+01
5.021776357323232531e+01 6.172376104797979934e+01 6.489942392676768179e+01
5.024854008838384090e+01 6.172060448232323182e+01 6.488206281565656752e+01
5.027714646464646364e+01 6.178598484848485128e+01 6.493434343434343248e+01
5.032295612373737725e+01 6.188719223484848442e+01 6.500872001262625588e+01
5.046046401515151558e+01 6.206699810606060908e+01 6.511939709595959869e+01
5.049309501262626299e+01 6.218564551767676818e+01 6.520789930555555713e+01
5.056175031565656752e+01 6.233968592171716949e+01 6.526392834595959869e+01
5.062117266414141170e+01 6.243130523989898961e+01 6.534150094696970257e+01
5.063178661616161946e+01 6.258065025252525260e+01 6.537326388888888573e+01
5.069164299242424221e+01 6.266481218434343248e+01 6.540502683080808310e+01
5.074364741161615910e+01 6.279920296717171624e+01 6.545087594696970257e+01
5.080429292929292728e+01 6.290751262626262275e+01 6.551972853535353636e+01
5.081999684343434609e+01 6.302643623737373701e+01 6.555894886363635976e+01
5.093308080808080973e+01 6.319996843434343248e+01 6.566114267676768179e+01
5.094369476010101039e+01 6.326629577020202078e+01 6.565250157828282340e+01
5.068497474747474740e+01 6.284075126262626299e+01 6.529150883838383379e+01
5.024455492424242209e+01 6.201838699494949481e+01 6.483041351010101039e+01
4.993596117424242209e+01 6.133100536616161946e+01 6.447241950757575069e+01
4.973879419191919027e+01 6.090703914141413833e+01 6.429829545454545325e+01
4.967980587121212466e+01 6.074277935606060908e+01 6.426440183080808310e+01
4.967337436868687206e+01 6.063297032828283051e+01 6.429853219696970257e+01
4.969649621212121104e+01 6.052698863636363313e+01 6.428330176767676107e+01
4.969649621212121104e+01 6.051499368686868507e+01 6.430303030303029743e+01
4.973070549242424221e+01 6.057761205808080973e+01 6.434181660353534937e+01
4.975347222222222143e+01 6.059611742424242209e+01 6.435211489898989612e+01
4.977592329545454675e+01 6.059994476010101039e+01 6.435752051767676107e+01
4.974258207070707272e+01 6.057465277777777857e+01 6.435542929292928704e+01
4.976767676767676818e+01 6.061300505050505194e+01 6.436710858585858830e+01
4.978716856060606233e+01 6.068963068181817988e+01 6.442321654040404155e+01
4.989993686868687206e+01 6.083775252525252597e+01 6.452730429292928704e+01
4.993146306818182012e+01 6.096807922979797922e+01 6.457950599747475451e+01
5.002268781565656752e+01 6.114153251262626299e+01 6.465857796717172334e+01
5.009386837121212466e+01 6.126416508838384090e+01 6.474917140151515582e+01
5.010748106060606233e+01 6.140751262626262275e+01 6.477951388888888573e+01
5.017230902777777857e+01 6.150627367424242209e+01 6.483629261363635976e+01
5.022616792929292728e+01 6.163462752525252597e+01 6.490041035353534937e+01
5.028665561868687206e+01 6.175872001262626299e+01 6.496926294191919737e+01
5.039567550505050519e+01 6.192534722222222143e+01 6.505018939393939092e+01
5.041122159090909349e+01 6.204790088383838054e+01 6.512334280303029743e+01
5.052864583333333570e+01 6.222451073232323182e+01 6.519831123737374412e+01
5.062673611111111427e+01 6.238557449494949481e+01 6.530208333333332860e+01
5.070363794191919027e+01 6.251377051767676818e+01 6.535389046717172334e+01
5.075288036616161946e+01 6.268248895202020066e+01 6.540565814393939092e+01
5.080239898989898961e+01 6.281470959595959869e+01 6.545643939393939092e+01
5.079434974747474740e+01 6.296291035353535648e+01 6.551104797979797922e+01
5.093390940656565391e+01 6.310562657828283051e+01 6.560436395202020776e+01
5.099127998737373701e+01 6.329115372474747403e+01 6.568667140151515582e+01
5.094294507575757791e+01 6.327249053030303116e+01 6.563123421717172334e+01
5.052537089646464352e+01 6.258866003787878896e+01 6.512180397727273373e+01
5.007575757575757791e+01 6.167140151515151558e+01 6.456297348484848442e+01
4.969775883838384090e+01 6.093434343434343248e+01 6.419491792929292728e+01
4.959580176767676818e+01 6.058869949494949481e+01 6.411000631313130782e+01
4.957437657828283051e+01 6.039129577020202078e+01 6.410089172979797922e+01
4.948429608585858830e+01 6.016990214646464352e+01 6.400560290404040131e+01
4.939839804292929415e+01 6.003397253787878896e+01 6.397699652777777857e+01
4.946851325757575779e+01 6.000086805555555713e+01 6.399723800505050519e+01
4.946780303030303116e+01 6.004434974747474740e+01 6.405003156565656752e+01
4.946283143939393767e+01 6.009114583333333570e+01 6.407804608585858830e+01
4.949790877525252597e+01 6.010333806818182012e+01 6.407840119949494806e+01
4.951041666666666430e+01 6.009674873737373701e+01 6.407607323232323893e+01
4.949455492424242209e+01 6.011371527777777857e+01 6.408325441919191690e+01
4.958443813131312794e+01 6.021180555555555713e+01 6.414709595959595845e+01
4.961095328282828376e+01 6.034232954545454675e+01 6.422727272727273373e+01
4.968592171717171624e+01 6.047206439393939092e+01 6.431060606060606233e+01
4.968319917929292728e+01 6.065258049242424221e+01 6.434576231060606233e+01
4.984678819444444287e+01 6.080985637626262275e+01 6.446437026515151558e+01
4.986777935606060908e+01 6.095111268939393767e+01 6.453397253787878185e+01
4.997656250000000000e+01 6.109572285353535648e+01 6.458309659090909349e+01
5.004967645202020066e+01 6.124001736111111427e+01 6.469740372474747403e+01
5.008779198232323182e+01 6.132611268939393767e+01 6.470490056818181301e+01
5.016788983585858830e+01 6.150706281565656752e+01 6.479904513888888573e+01
5.023058712121212466e+01 6.164977904040404155e+01 6.486695075757575069e+01
5.029178503787878896e+01 6.181703756313131493e+01 6.495750473484848442e+01
5.041591698232323182e+01 6.198946496212121104e+01 6.506853693181818699e+01
5.048555871212121104e+01 6.212492108585858830e+01 6.514891098484848442e+01
5.053136837121212466e+01 6.229367897727272663e+01 6.522044665404040131e+01
5.058317550505050519e+01 6.246338383838384090e+01 6.528851010101010388e+01
5.064228219696969546e+01 6.264180871212121104e+01 6.535219381313130782e+01
5.073697916666666430e+01 6.281731376262626299e+01 6.543315972222222854e+01
5.077071496212121104e+01 6.286683238636363313e+01 6.540518465909090651e+01
5.039741161616161946e+01 6.239125631313131493e+01 6.500015782828282340e+01
4.995991161616161946e+01 6.147522095959595845e+01 6.443544823232323893e+01
4.961308396464646364e+01 6.079600694444444287e+01 6.408972537878787534e+01
4.946393623737373701e+01 6.039733270202020066e+01 6.399818497474747403e+01
4.945766256313131493e+01 6.023686079545454675e+01 6.399617266414141170e+01
4.944187973484848442e+01 6.014090119949494806e+01 6.394377367424242209e+01
4.939263731060606233e+01 6.006056660353535648e+01 6.392530776515151558e+01
4.944673295454545325e+01 6.005737058080808310e+01 6.396614583333333570e+01
4.946279198232323182e+01 6.016070864898989612e+01 6.402671243686869218e+01
4.949577809343434609e+01 6.020032354797979934e+01 6.403428819444444287e+01
4.946918402777777857e+01 6.020324337121212466e+01 6.405046559343433898e+01
4.950366950757575779e+01 6.021437026515151558e+01 6.405954071969696884e+01
4.951227114898989612e+01 6.027268781565656752e+01 6.406561710858585457e+01
4.955930397727272663e+01 6.037354008838384090e+01 6.412953756313130782e+01
4.962851167929292728e+01 6.050745738636363313e+01 6.423883364898989612e+01
4.971369949494949481e+01 6.070233585858586167e+01 6.429008838383838054e+01
4.982828282828283051e+01 6.088920454545454675e+01 6.442850378787878185e+01
4.988198390151514872e+01 6.101171875000000000e+01 6.447873263888888573e+01
4.993402777777777857e+01 6.115972222222222143e+01 6.454261363636364024e+01
5.000927241161615910e+01 6.129809816919191690e+01 6.464484690656566102e+01
5.007859848484848442e+01 6.145628156565656752e+01 6.470028409090909349e+01
5.015617108585858830e+01 6.161592487373737725e+01 6.478669507575757791e+01
5.018469854797979934e+01 6.175461647727272663e+01 6.484473642676768179e+01
5.029695391414141170e+01 6.192274305555555713e+01 6.494499684343433898e+01
5.031403882575757791e+01 6.200138099747474740e+01 6.494030145202020776e+01
5.008538510101010388e+01 6.167313762626262275e+01 6.464962121212121815e+01
4.966575915404040131e+01 6.094953440656565391e+01 6.417838541666667140e+01
4.942290088383838054e+01 6.034603851010101039e+01 6.387318497474747403e+01
4.928783933080808310e+01 6.004336332070707272e+01 6.377363478535353636e+01
4.929131155303030454e+01 5.995718907828283051e+01 6.378783933080808310e+01
4.931849747474747403e+01 5.994286616161615910e+01 6.380886994949494806e+01
4.936442550505050519e+01 5.999542297979797922e+01 6.386032196969696884e+01
4.945253314393939092e+01 6.013971748737373701e+01 6.399104324494949481e+01
4.951775568181817988e+01 6.025891729797979934e+01 6.402375315656566102e+01
4.947948232323232531e+01 6.027099116161615910e+01 6.401720328282827666e+01
4.952533143939393767e+01 6.026081123737373701e+01 6.401617739898989612e+01
4.950461647727272663e+01 6.030954071969696884e+01 6.404265309343433898e+01
4.953874684343434609e+01 6.035834911616161946e+01 6.406115845959595845e+01
4.959063289141413833e+01 6.050461647727272663e+01 6.416796875000000000e+01
4.969215593434343248e+01 6.068805239898989612e+01 6.425891729797979224e+01
4.976384943181817988e+01 6.083913352272727337e+01 6.435949337121212466e+01
4.983779198232323182e+01 6.103081597222222143e+01 6.443864425505050519e+01
4.992992424242424221e+01 6.119618055555555713e+01 6.451436237373737015e+01
4.996255523989898961e+01 6.131072443181817988e+01 6.457098327020202078e+01
5.005669981060606233e+01 6.144227430555555713e+01 6.465013415404040131e+01
5.008550347222222143e+01 6.159339488636363313e+01 6.472060448232323893e+01
5.013158933080808310e+01 6.175974589646464352e+01 6.474222695707071296e+01
5.027059659090909349e+01 6.190916982323232531e+01 6.487365845959595845e+01
5.035250946969696884e+01 6.209177714646464352e+01 6.498508522727273373e+01
5.045083648989898961e+01 6.225970643939393767e+01 6.507157512626262985e+01
5.047036773989898961e+01 6.246168718434343248e+01 6.512661773989898961e+01
5.058806818181817988e+01 6.261079545454545325e+01 6.521354166666667140e+01
5.066512784090909349e+01 6.277971117424242209e+01 6.529770359848484418e+01
5.072577335858586167e+01 6.293489583333333570e+01 6.535361426767676107e+01
5.071965751262626299e+01 6.309970801767676818e+01 6.541615372474747403e+01
5.080030776515151558e+01 6.325264362373737725e+01 6.549727746212121815e+01
5.078428819444444287e+01 6.328428819444444287e+01 6.542380839646465063e+01
5.038983585858586167e+01 6.255744949494949481e+01 6.487405303030303116e+01
4.986860795454545325e+01 6.151996527777777857e+01 6.426459911616161946e+01
4.953574810606060908e+01 6.077501578282828376e+01 6.388644255050505194e+01
4.938802083333333570e+01 6.038770517676767469e+01 6.380784406565656752e+01
4.934820864898989612e+01 6.020048137626262275e+01 6.376787405303030454e+01
4.927264835858586167e+01 6.008372790404040131e+01 6.373350694444444287e+01
4.927868529040404155e+01 5.997139362373737725e+01 6.372549715909090651e+01
4.930488478535353636e+01 5.997675978535353636e+01 6.377442392676767469e+01
4.933510890151514872e+01 6.003791824494949481e+01 6.379391571969696884e+01
4.936474116161615910e+01 6.008727904040404155e+01 6.384011994949494806e+01
4.937488162878787534e+01 6.009915561868687206e+01 6.385341698232323182e+01
4.935266729797979934e+01 6.009067234848485128e+01 6.384824810606060908e+01
4.935298295454545325e+01 6.010913825757575779e+01 6.386261047979797922e+01
4.940388257575757791e+01 6.018876262626262275e+01 6.392803030303030454e+01
4.949262152777777857e+01 6.032611268939393767e+01 6.403744476010101039e+01
4.956731376262626299e+01 6.047245896464646364e+01 6.410613952020202078e+01
4.964468907828283051e+01 6.065778882575757791e+01 6.415305397727273373e+01
4.971677714646464352e+01 6.080358270202020066e+01 6.424502840909090651e+01
4.980922506313131493e+01 6.097415561868687206e+01 6.434410511363635976e+01
4.985767834595959869e+01 6.114571496212121104e+01 6.443327809343433898e+01
4.993572443181817988e+01 6.127489741161615910e+01 6.444945549242424931e+01
4.995521622474747403e+01 6.142538667929292728e+01 6.455038667929292728e+01
5.003547190656565391e+01 6.154131155303030454e+01 6.461170296717172334e+01
5.008534564393939092e+01 6.171555397727272663e+01 6.470434816919191690e+01
5.022991635101010388e+01 6.190810448232323182e+01 6.481435448232323893e+01
5.031040877525252597e+01 6.209939236111111427e+01 6.491331281565656752e+01
5.027201704545454675e+01 6.209635416666666430e+01 6.482125946969696884e+01
4.987677556818182012e+01 6.148220486111111427e+01 6.435278566919191690e+01
4.945975378787878896e+01 6.061363636363636687e+01 6.384453914141413833e+01
4.911320233585858830e+01 5.995868844696969546e+01 6.357200915404040131e+01
4.906265782828283051e+01 5.964851641414141170e+01 6.350000000000000000e+01
4.902975063131312794e+01 5.953148674242424221e+01 6.349739583333333570e+01
4.908222853535353636e+01 5.944933712121212466e+01 6.349116161616161946e+01
4.903807607323232531e+01 5.941497001262626299e+01 6.350051294191919027e+01
4.908680555555555713e+01 5.945059974747474740e+01 6.355744949494949481e+01
4.916627209595959869e+01 5.957173295454545325e+01 6.363865214646464352e+01
4.916161616161615910e+01 5.963431186868687206e+01 6.367203282828283051e+01
4.919637784090909349e+01 5.965218592171716949e+01 6.367349273989898961e+01
4.922103851010101039e+01 5.968000315656565391e+01 6.367858270202020066e+01
4.920359848484848442e+01 5.975157828282828376e+01 6.374337121212121104e+01
4.933633207070707272e+01 5.991887626262626299e+01 6.385606060606060908e+01
4.941528566919191690e+01 6.010625789141413833e+01 6.396137152777777857e+01
4.951108743686868507e+01 6.030654198232323182e+01 6.406490688131313505e+01
4.957887468434343248e+01 6.051984690656565391e+01 6.416646938131313505e+01
4.964240056818182012e+01 6.068927556818182012e+01 6.422099905303029743e+01
4.973993844696969546e+01 6.088261521464646364e+01 6.435467960858585457e+01
4.984343434343434609e+01 6.105034722222222143e+01 6.441035353535353636e+01
4.991489109848485128e+01 6.124554135101010388e+01 6.452947443181818699e+01
5.000848327020202078e+01 6.141552241161615910e+01 6.460649463383838054e+01
5.009848484848485128e+01 6.160858585858586167e+01 6.471496212121212466e+01
5.021326546717171624e+01 6.182737531565656752e+01 6.481664299242424931e+01
5.023038983585858830e+01 6.200122316919191690e+01 6.489500473484848442e+01
5.040928819444444287e+01 6.222557607323232531e+01 6.502876420454545325e+01
5.047873263888888573e+01 6.245363794191919027e+01 6.513119476010101039e+01
5.058558238636363313e+01 6.265486900252525260e+01 6.523409880050505194e+01
5.067637310606060908e+01 6.287381628787878896e+01 6.531589330808080263e+01
5.075753630050505194e+01 6.307035195707070585e+01 6.542088857323231821e+01
5.083791035353535648e+01 6.332875631313131493e+01 6.552083333333332860e+01
5.095004734848485128e+01 6.355595012626262275e+01 6.559509154040404155e+01
5.102324021464646364e+01 6.376329703282828376e+01 6.571831597222222854e+01
5.111624053030303116e+01 6.397451073232323182e+01 6.582709911616161946e+01
5.110168087121212466e+01 6.408542455808080263e+01 6.581553819444444287e+01
5.073559816919191690e+01 6.354273200757575779e+01 6.535791508838383379e+01
5.022928503787878896e+01 6.253184185606060908e+01 6.467341382575757791e+01
4.984698547979797922e+01 6.162760416666666430e+01 6.424502840909090651e+01
4.966051136363636687e+01 6.110353535353535648e+01 6.408791035353534937e+01
4.960448232323232531e+01 6.090025252525252597e+01 6.407339015151515582e+01
4.960278566919191690e+01 6.086683238636363313e+01 6.410546875000000000e+01
4.960838857323232531e+01 6.084276357323232531e+01 6.412653882575757791e+01
4.963766571969696884e+01 6.087093592171716949e+01 6.416528566919191690e+01
4.966796875000000000e+01 6.090913036616161946e+01 6.422967960858585457e+01
4.971014835858586167e+01 6.094594381313131493e+01 6.423603219696970257e+01
4.964433396464646364e+01 6.091532512626262275e+01 6.420525568181818699e+01
4.965751262626262275e+01 6.088904671717171624e+01 6.417866161616161946e+01
4.966903409090909349e+01 6.089993686868687206e+01 6.418892045454545325e+01
4.972754892676767469e+01 6.099175347222222143e+01 6.425106534090909349e+01
4.980835700757575779e+01 6.114942392676767469e+01 6.436833175505050519e+01
4.988486426767676818e+01 6.129947916666666430e+01 6.445746527777777146e+01
4.997348484848485128e+01 6.149195075757575779e+01 6.457954545454545325e+01
5.004328440656565391e+01 6.167917455808080973e+01 6.467096748737374412e+01
5.013908617424242209e+01 6.183574021464646364e+01 6.474104324494949481e+01
5.021184501262626299e+01 6.202576546717171624e+01 6.484710385101010388e+01
5.024936868686868507e+01 6.216903409090909349e+01 6.486000631313130782e+01
5.034031723484848442e+01 6.233747632575757791e+01 6.492822758838383379e+01
5.042562342171716949e+01 6.254131155303030454e+01 6.502663352272726627e+01
5.050414299242424221e+01 6.269164299242424221e+01 6.512393465909090651e+01
5.062926136363636687e+01 6.290530303030303116e+01 6.523737373737374412e+01
5.066627209595959869e+01 6.310424558080808310e+01 6.530894886363635976e+01
5.056530145202020066e+01 6.297723327020202078e+01 6.513632417929292728e+01
5.006668244949494806e+01 6.221772411616161946e+01 6.462097537878787534e+01
4.974021464646464352e+01 6.139457070707070585e+01 6.416382575757575069e+01
4.948579545454545325e+01 6.086032196969696884e+01 6.392945075757575779e+01
4.944093276515151558e+01 6.065368529040404155e+01 6.391283933080808310e+01
4.944101167929292728e+01 6.064729324494949481e+01 6.395411142676767469e+01
4.949514678030303116e+01 6.066244476010101039e+01 6.400209122474747403e+01
4.960227272727272663e+01 6.080950126262626299e+01 6.415246212121212466e+01
4.969397095959595845e+01 6.093734217171716949e+01 6.421811868686869218e+01
4.966706123737373701e+01 6.099723800505050519e+01 6.423761047979797922e+01
4.967159880050505194e+01 6.098615056818182012e+01 6.420079703282827666e+01
4.964003314393939092e+01 6.096989425505050519e+01 6.418296243686869218e+01
4.962859059343434609e+01 6.096034564393939092e+01 6.418162089646465063e+01
4.968959122474747403e+01 6.106364425505050519e+01 6.425714172979797922e+01
4.977971117424242209e+01 6.121121369949494806e+01 6.435846748737374412e+01
4.987456597222222143e+01 6.137835385101010388e+01 6.445679450757575069e+01
4.998500631313131493e+01 6.157970328282828376e+01 6.459816919191919737e+01
5.005800189393939092e+01 6.176523042929292728e+01 6.467242739898989612e+01
5.015664457070707272e+01 6.193584280303030454e+01 6.476017992424242209e+01
5.022024936868687206e+01 6.212192234848485128e+01 6.485298295454545325e+01
5.033518781565656752e+01 6.227000473484848442e+01 6.490321180555555713e+01
5.036497790404040131e+01 6.244862689393939092e+01 6.499850063131313505e+01
5.041536458333333570e+01 6.260112847222222143e+01 6.504509943181818699e+01
5.048808396464646364e+01 6.278685290404040131e+01 6.512539457070707272e+01
5.057212752525252597e+01 6.295801767676767469e+01 6.518544823232323893e+01
5.062918244949494806e+01 6.314370265151514872e+01 6.524644886363635976e+01
5.074372632575757791e+01 6.336919981060606233e+01 6.537172506313130782e+01
5.064129577020202078e+01 6.329265309343434609e+01 6.525177556818181301e+01
5.016489109848485128e+01 6.244361584595959869e+01 6.464831912878787534e+01
4.965755208333333570e+01 6.143059501262626299e+01 6.404296875000000000e+01
4.937673611111111427e+01 6.068734217171716949e+01 6.376357323232323182e+01
4.921953914141413833e+01 6.030523989898989612e+01 6.366019570707070585e+01
4.922155145202020066e+01 6.018398832070707272e+01 6.366662720959595845e+01
4.919614109848485128e+01 6.009655145202020066e+01 6.367657039141413833e+01
4.918895991161615910e+01 6.004580965909090651e+01 6.366528566919191690e+01
4.925619476010101039e+01 6.011793718434343248e+01 6.375003945707070585e+01
4.928811553030303116e+01 6.017447916666666430e+01 6.380310921717171624e+01
4.930393781565656752e+01 6.020261205808080973e+01 6.380693655303030454e+01
4.929498106060606233e+01 6.021243686868687206e+01 6.381171085858586167e+01
4.931541982323232531e+01 6.019862689393939092e+01 6.380374053030303116e+01
4.931628787878787534e+01 6.022095959595959869e+01 6.383901515151514872e+01
4.941453598484848442e+01 6.036071654040404155e+01 6.393568497474747403e+01
4.952430555555555713e+01 6.051783459595959869e+01 6.402809343434343248e+01
4.956206597222222143e+01 6.070363794191919027e+01 6.412914299242424931e+01
4.965948547979797922e+01 6.090711805555555713e+01 6.426286300505050519e+01
4.975879892676767469e+01 6.109718276515151558e+01 6.434907670454545325e+01
4.984347380050505194e+01 6.125240688131312794e+01 6.443217329545454675e+01
4.991658775252525260e+01 6.143379103535353636e+01 6.452896148989898961e+01
5.001822916666666430e+01 6.160535037878787534e+01 6.460803345959595845e+01
5.005389835858586167e+01 6.175149936868687206e+01 6.466721906565656752e+01
5.014326862373737725e+01 6.191536458333333570e+01 6.476590119949494806e+01
5.020320391414141170e+01 6.214591224747474740e+01 6.484477588383838054e+01
5.031652462121212466e+01 6.232883522727272663e+01 6.496740845959595845e+01
5.042096748737373701e+01 6.253460385101010388e+01 6.503997001262625588e+01
5.049984217171716949e+01 6.273500631313131493e+01 6.511900252525252597e+01
5.058392518939393767e+01 6.292420296717171624e+01 6.522249842171717660e+01
5.062713068181817988e+01 6.315112058080808310e+01 6.522372159090909349e+01
5.081478851010101039e+01 6.336134785353535648e+01 6.540522411616161946e+01
5.088364109848485128e+01 6.358471433080808310e+01 6.549364741161616621e+01
5.094941603535353636e+01 6.375213068181817988e+01 6.559398674242424931e+01
5.106545928030303116e+01 6.396839488636363313e+01 6.569929766414141170e+01
5.111876578282828376e+01 6.416232638888888573e+01 6.580310921717172334e+01
5.100299873737373701e+01 6.413273358585858830e+01 6.568955176767676107e+01
5.046831597222222143e+01 6.326329703282828376e+01 6.496831597222222854e+01
4.995778093434343248e+01 6.203811553030303116e+01 6.431889204545454675e+01
4.951562500000000000e+01 6.112484217171716949e+01 6.390404040404040131e+01
4.934564393939393767e+01 6.061505681818182012e+01 6.373611111111111427e+01
4.930259627525252597e+01 6.038261521464646364e+01 6.372652304292929415e+01
4.926475694444444287e+01 6.023035037878787534e+01 6.370809659090909349e+01
4.921606691919191690e+01 6.013999368686868507e+01 6.369412878787878896e+01
4.922979797979797922e+01 6.009517045454545325e+01 6.369207702020202078e+01
4.925781250000000000e+01 6.014322916666666430e+01 6.375797032828283051e+01
4.928397253787878896e+01 6.016465435606060908e+01 6.378602430555555713e+01
4.928199968434343248e+01 6.017294034090909349e+01 6.379178503787878896e+01
4.925808869949494806e+01 6.014113794191919027e+01 6.376550662878787534e+01
4.927367424242424221e+01 6.016445707070707272e+01 6.379277146464646364e+01
4.930326704545454675e+01 6.021425189393939092e+01 6.385582386363636687e+01
4.938087910353535648e+01 6.036288667929292728e+01 6.395474273989898961e+01
4.950157828282828376e+01 6.053677398989898961e+01 6.406849747474747403e+01
4.958889678030303116e+01 6.073220486111111427e+01 6.418327809343433898e+01
4.968110795454545325e+01 6.091137941919191690e+01 6.423950441919191690e+01
4.975205176767676818e+01 6.111142676767676818e+01 6.435763888888888573e+01
4.984327651515151558e+01 6.128393308080808310e+01 6.445580808080808310e+01
4.990976167929292728e+01 6.143564551767676818e+01 6.450761521464646364e+01
4.997340593434343248e+01 6.160440340909090651e+01 6.459288194444444287e+01
5.008459595959595845e+01 6.181123737373737725e+01 6.472806186868686495e+01
5.019495738636363313e+01 6.201250789141413833e+01 6.483353061868686495e+01
5.026688762626262275e+01 6.224921085858586167e+01 6.486568813131313505e+01
5.036426767676767469e+01 6.243229166666666430e+01 6.498279671717172334e+01
5.048212594696969546e+01 6.264121685606060908e+01 6.512275094696970257e+01
5.059465751262626299e+01 6.286517518939393767e+01 6.523086332070707272e+01
5.066469381313131493e+01 6.305800189393939092e+01 6.531983901515151558e+01
5.079640151515151558e+01 6.330650252525252597e+01 6.542282196969696884e+01
5.089820075757575779e+01 6.351546717171716949e+01 6.556328914141414543e+01
5.096074021464646364e+01 6.375477430555555713e+01 6.566765309343433898e+01
5.086438604797979934e+01 6.370355902777777857e+01 6.552426609848484418e+01
5.035819128787878896e+01 6.281463068181817988e+01 6.482851957070707272e+01
4.981901041666666430e+01 6.173520359848485128e+01 6.421010890151515582e+01
4.945813604797979934e+01 6.093872316919191690e+01 6.388285195707070585e+01
4.934079071969696884e+01 6.056632733585858830e+01 6.377560763888888573e+01
4.931356534090909349e+01 6.042704387626262275e+01 6.377347695707070585e+01
4.931806344696969546e+01 6.039445233585858830e+01 6.381017203282828376e+01
4.932915088383838054e+01 6.035708648989898961e+01 6.380721275252525260e+01
4.937243529040404155e+01 6.043256786616161946e+01 6.388064236111111427e+01
4.944661458333333570e+01 6.053736584595959869e+01 6.395782039141413833e+01
4.942144097222222143e+01 6.058147885101010388e+01 6.395442708333333570e+01
4.942479482323232531e+01 6.055721275252525260e+01 6.394278724747474740e+01
4.943138415404040131e+01 6.054344223484848442e+01 6.394700915404040131e+01
4.946397569444444287e+01 6.057208806818182012e+01 6.396729008838384090e+01
4.950666824494949481e+01 6.068438289141413833e+01 6.404344223484848442e+01
4.962500000000000000e+01 6.087578914141413833e+01 6.416761363636364024e+01
4.973019255050505194e+01 6.105137310606060908e+01 6.429742739898989612e+01
4.982524463383838054e+01 6.126826862373737725e+01 6.438506155303029743e+01
4.994176136363636687e+01 6.147979797979797922e+01 6.449037247474747403e+01
5.000457702020202078e+01 6.164977904040404155e+01 6.458459595959595845e+01
5.006171085858586167e+01 6.182496843434343248e+01 6.464204545454545325e+01
5.015924873737373701e+01 6.196306818181817988e+01 6.474447601010101039e+01
5.017637310606060908e+01 6.215333017676767469e+01 6.480168876262625588e+01
5.026156092171716949e+01 6.236462279040404155e+01 6.487330334595959869e+01
5.037973484848485128e+01 6.253756313131312794e+01 6.500063131313130782e+01
5.041193181818182012e+01 6.265956439393939092e+01 6.501846590909090651e+01
5.008337279040404155e+01 6.218012152777777857e+01 6.459931344696970257e+01
4.959161931818182012e+01 6.128306502525252597e+01 6.403243371212121815e+01
4.925722064393939092e+01 6.054604640151514872e+01 6.364547821969696884e+01
4.910337752525252597e+01 6.012421085858586167e+01 6.350994318181817988e+01
4.911351799242424221e+01 6.001897885101010388e+01 6.351171875000000000e+01
4.913375946969696884e+01 6.001191603535353636e+01 6.356889204545454675e+01
4.916268150252525260e+01 6.008723958333333570e+01 6.365557922979797922e+01
4.927943497474747403e+01 6.023003472222222143e+01 6.379300820707070585e+01
4.933885732323232531e+01 6.035353535353535648e+01 6.382638888888888573e+01
4.933798926767676818e+01 6.036608270202020066e+01 6.381084280303030454e+01
4.927915877525252597e+01 6.033723958333333570e+01 6.377789614898989612e+01
4.926440183080808310e+01 6.032800662878787534e+01 6.376629577020202078e+01
4.929687500000000000e+01 6.036679292929292728e+01 6.379703282828283051e+01
4.940546085858586167e+01 6.048926767676767469e+01 6.389709595959595845e+01
4.947608901515151558e+01 6.066074810606060908e+01 6.400134154040404155e+01
4.956845801767676818e+01 6.088648200757575779e+01 6.411833175505050519e+01
4.968556660353535648e+01 6.110775726010101039e+01 6.424885574494949481e+01
4.974893465909090651e+01 6.128949652777777857e+01 6.434868213383838054e+01
4.981407828282828376e+01 6.147885101010101039e+01 6.442266414141414543e+01
4.993244949494949481e+01 6.162484217171716949e+01 6.450694444444444287e+01
5.003377525252525260e+01 6.179529671717171624e+01 6.460116792929292728e+01
5.005823863636363313e+01 6.195233585858586167e+01 6.465198863636364024e+01
5.018880208333333570e+01 6.212235637626262275e+01 6.474640940656566102e+01
5.029561237373737725e+01 6.231297348484848442e+01 6.483506944444444287e+01
5.031719539141413833e+01 6.251590119949494806e+01 6.491915246212121815e+01
5.041706123737373701e+01 6.272198547979797922e+01 6.499408143939393767e+01
5.052481849747474740e+01 6.291733743686868507e+01 6.508053188131313505e+01
5.057125946969696884e+01 6.309698547979797922e+01 6.516564078282827666e+01
5.063636363636363313e+01 6.330539772727272663e+01 6.522506313131313505e+01
5.075437973484848442e+01 6.351716382575757791e+01 6.536217645202020776e+01
5.076534880050505194e+01 6.370142834595959869e+01 6.546642203282827666e+01
5.065265940656565391e+01 6.354265309343434609e+01 6.524309501262625588e+01
5.007204861111111427e+01 6.251728219696969546e+01 6.444010416666667140e+01
4.949562026515151558e+01 6.131317077020202078e+01 6.379407354797979934e+01
4.911860795454545325e+01 6.046172664141413833e+01 6.340601325757575779e+01
4.891137941919191690e+01 6.001175820707070585e+01 6.328416982323232531e+01
4.889180871212121104e+01 5.979695391414141170e+01 6.325970643939393767e+01
4.890309343434343248e+01 5.969255050505050519e+01 6.323926767676767469e+01
4.886008522727272663e+01 5.961024305555555713e+01 6.324045138888888573e+01
4.891331281565656752e+01 5.963285195707070585e+01 6.326290246212121104e+01
4.892593907828283051e+01 5.969298453282828376e+01 6.331593276515151558e+01
4.899068813131312794e+01 5.972522095959595845e+01 6.334753787878787534e+01
4.896160827020202078e+01 5.973117897727272663e+01 6.335712594696969546e+01
4.897103851010101039e+01 5.971330492424242209e+01 6.333499053030303116e+01
4.892325599747474740e+01 5.974838226010101039e+01 6.338616635101010388e+01
4.903768150252525260e+01 5.985112847222222143e+01 6.345324337121212466e+01
4.910026041666666430e+01 6.001740056818182012e+01 6.355701546717171624e+01
4.923074494949494806e+01 6.021022727272727337e+01 6.367929292929292728e+01
4.930812026515151558e+01 6.042144097222222143e+01 6.377592329545454675e+01
4.938569286616161946e+01 6.058739741161615910e+01 6.385965119949494806e+01
4.946547506313131493e+01 6.075098642676767469e+01 6.392317708333333570e+01
4.957031250000000000e+01 6.094357638888888573e+01 6.405326704545454675e+01
4.967514993686868507e+01 6.112606534090909349e+01 6.414705650252524549e+01
4.970707070707070585e+01 6.126373106060606233e+01 6.419760101010101039e+01
4.979521780303030454e+01 6.144420770202020066e+01 6.431368371212121815e+01
4.988612689393939092e+01 6.161939709595959869e+01 6.440048926767676107e+01
4.997952178030303116e+01 6.181837910353535648e+01 6.448425662878787534e+01
5.007267992424242209e+01 6.203322285353535648e+01 6.458420138888888573e+01
5.005117582070707272e+01 6.206680082070707272e+01 6.456190814393939092e+01
4.962894570707070585e+01 6.143907828282828376e+01 6.398042929292929415e+01
4.905401672979797922e+01 6.038845486111111427e+01 6.333068970959595845e+01
4.868162089646464352e+01 5.959639362373737725e+01 6.299601483585858830e+01
4.854028566919191690e+01 5.918043718434343248e+01 6.285799400252525260e+01
4.858668718434343248e+01 5.902623895202020066e+01 6.287582859848485128e+01
4.861829229797979934e+01 5.897387941919191690e+01 6.288360164141413833e+01
4.858159722222222143e+01 5.895170454545454675e+01 6.287484217171716949e+01
4.861691130050505194e+01 5.904367897727272663e+01 6.296113478535353636e+01
4.872561553030303116e+01 5.916137941919191690e+01 6.303622159090909349e+01
4.871839488636363313e+01 5.923701862373737725e+01 6.308566130050505194e+01
4.875457702020202078e+01 5.925773358585858830e+01 6.309154040404040131e+01
4.871279198232323182e+01 5.927118844696969546e+01 6.308116319444444287e+01
4.877493686868687206e+01 5.932891414141413833e+01 6.312010732323232531e+01
4.880452967171716949e+01 5.943458017676767469e+01 6.318252840909090651e+01
4.893959122474747403e+01 5.964240056818182012e+01 6.329423137626262275e+01
4.903468276515151558e+01 5.983076862373737725e+01 6.344771938131312794e+01
4.915029198232323182e+01 6.010199652777777857e+01 6.357185132575757791e+01
4.922391887626262275e+01 6.029352114898989612e+01 6.368304135101010388e+01
4.928705018939393767e+01 6.051432291666666430e+01 6.376874210858586167e+01
4.937448705808080973e+01 6.071129261363636687e+01 6.385160195707070585e+01
4.949779040404040131e+01 6.088778409090909349e+01 6.396417297979797922e+01
4.956774779040404155e+01 6.107216698232323182e+01 6.406364425505050519e+01
4.970344065656565391e+01 6.131549873737373701e+01 6.421070075757575069e+01
4.979360006313131493e+01 6.152103061868687206e+01 6.429723011363635976e+01
4.992365056818182012e+01 6.172226167929292728e+01 6.439334753787878185e+01
5.000244633838384090e+01 6.195288825757575779e+01 6.451112689393939092e+01
5.013103693181817988e+01 6.219432607323232531e+01 6.463214172979797922e+01
5.023717645202020066e+01 6.244787720959595845e+01 6.475153882575757791e+01
5.034718276515151558e+01 6.267704387626262275e+01 6.488443023989898961e+01
5.042716224747474740e+01 6.290696022727272663e+01 6.499202967171717660e+01
5.052300347222222143e+01 6.314042771464646364e+01 6.510775726010101039e+01
5.055449021464646364e+01 6.334110637626262275e+01 6.515123895202020776e+01
5.069160353535353636e+01 6.353708964646464352e+01 6.528693181818181301e+01
5.079273200757575779e+01 6.376037720959595845e+01 6.538869160353534937e+01
5.087934027777777857e+01 6.399155618686868507e+01 6.551033775252524549e+01
5.078369633838384090e+01 6.391927083333333570e+01 6.535866477272726627e+01
5.018323863636363313e+01 6.297537878787878896e+01 6.454908459595959869e+01
4.964133522727272663e+01 6.185456123737373701e+01 6.382915088383838054e+01
4.927229324494949481e+01 6.096642203282828376e+01 6.346752683080808310e+01
4.906620896464646364e+01 6.053953598484848442e+01 6.335172032828283051e+01
4.909824810606060908e+01 6.041832386363636687e+01 6.336119002525252597e+01
4.910665246212121104e+01 6.037196180555555713e+01 6.338332544191919027e+01
4.912168560606060908e+01 6.039157196969696884e+01 6.343166035353535648e+01
4.916153724747474740e+01 6.044957386363636687e+01 6.348839962121212466e+01
4.925319602272727337e+01 6.056979955808080973e+01 6.357563920454545325e+01
4.920912247474747403e+01 6.058065025252525260e+01 6.355808080808080973e+01
4.915246212121212466e+01 6.051720328282828376e+01 6.350394570707070585e+01
4.916611426767676818e+01 6.047293244949494806e+01 6.350197285353535648e+01
4.918832859848485128e+01 6.050824652777777857e+01 6.348899147727272663e+01
4.923441445707070585e+01 6.059300031565656752e+01 6.357374526515151558e+01
4.931490688131312794e+01 6.073330965909090651e+01 6.368233112373737725e+01
4.939650410353535648e+01 6.095995107323232531e+01 6.382264046717171624e+01
4.949771148989898961e+01 6.115017361111111427e+01 6.391785037878787534e+01
4.964630681818182012e+01 6.138415404040404155e+01 6.403835227272726627e+01
4.971176609848485128e+01 6.155961963383838054e+01 6.411122948232323893e+01
4.972747001262626299e+01 6.167065183080808310e+01 6.415597380050505194e+01
4.982587594696969546e+01 6.186091382575757791e+01 6.424506786616161946e+01
4.987184343434343248e+01 6.199621212121212466e+01 6.427367424242424931e+01
4.999120107323232531e+01 6.222636521464646364e+01 6.441386521464646364e+01
5.006395991161615910e+01 6.244195864898989612e+01 6.451203440656566102e+01
5.018793402777777857e+01 6.261028251262626299e+01 6.459702493686869218e+01
5.018189709595959869e+01 6.270146780303030454e+01 6.458136047979797922e+01
4.979462594696969546e+01 6.215984059343434609e+01 6.407682291666667140e+01
4.930062342171716949e+01 6.120939867424242209e+01 6.354115372474747403e+01
4.893872316919191690e+01 6.042167771464646364e+01 6.313837594696969546e+01
4.874041193181817988e+01 6.000130208333333570e+01 6.299072758838384090e+01
4.877951388888888573e+01 5.990388257575757791e+01 6.297348484848485128e+01
4.879837436868687206e+01 5.989717487373737725e+01 6.302706755050505194e+01
4.888233901515151558e+01 5.998208648989898961e+01 6.309446022727272663e+01
4.896302872474747403e+01 6.015147569444444287e+01 6.322912720959595845e+01
4.902043876262626299e+01 6.022956123737373701e+01 6.331968118686868507e+01
4.900185448232323182e+01 6.025690498737373701e+01 6.328626104797979934e+01
4.900962752525252597e+01 6.021243686868687206e+01 6.325820707070707272e+01
4.896583017676767469e+01 6.018694760101010388e+01 6.320809659090909349e+01
4.900153882575757791e+01 6.023496685606060908e+01 6.326085069444444287e+01
4.904833491161615910e+01 6.035026041666666430e+01 6.335641571969696884e+01
4.915952493686868507e+01 6.053657670454545325e+01 6.348938604797979934e+01
4.925729955808080973e+01 6.074719854797979934e+01 6.361872632575757791e+01
4.935728377525252597e+01 6.092672821969696884e+01 6.370497948232323182e+01
4.945241477272727337e+01 6.112760416666666430e+01 6.381715593434343248e+01
4.952320075757575779e+01 6.131897095959595845e+01 6.389583333333333570e+01
4.962693339646464352e+01 6.148409880050505194e+01 6.396468592171716949e+01
4.970411142676767469e+01 6.167144097222222143e+01 6.404754577020202078e+01
4.978322285353535648e+01 6.183088699494949481e+01 6.413723169191919737e+01
4.987180397727272663e+01 6.200422190656565391e+01 6.419803503787878185e+01
4.994168244949494806e+01 6.216579861111111427e+01 6.428432765151515582e+01
5.003334122474747403e+01 6.235357481060606233e+01 6.435373263888888573e+01
5.010049715909090651e+01 6.255551609848485128e+01 6.446223958333332860e+01
5.015037089646464352e+01 6.270624210858586167e+01 6.453152619949494806e+01
5.026211332070707272e+01 6.290621054292929415e+01 6.463285195707071296e+01
5.035933554292929415e+01 6.310128630050505194e+01 6.475848327020202078e+01
5.039291351010101039e+01 6.327722537878787534e+01 6.482646780303029743e+01
5.012227746212121104e+01 6.291173453282828376e+01 6.444866635101010388e+01
4.946646148989898961e+01 6.180168876262626299e+01 6.359035669191919027e+01
4.893927556818182012e+01 6.065865688131312794e+01 6.303318339646464352e+01
4.863297032828283051e+01 5.993205492424242209e+01 6.276144255050505194e+01
4.854478377525252597e+01 5.961817392676767469e+01 6.263395675505050519e+01
4.848054766414141170e+01 5.943746054292929415e+01 6.266788983585858830e+01
4.849360795454545325e+01 5.935408775252525260e+01 6.265380366161615910e+01
4.844503630050505194e+01 5.926700599747474740e+01 6.266062973484848442e+01
4.847668087121212466e+01 5.930464804292929415e+01 6.268059501262626299e+01
4.854742739898989612e+01 5.936923926767676818e+01 6.275765467171716949e+01
4.857563920454545325e+01 5.939192708333333570e+01 6.276266571969696884e+01
4.852718592171716949e+01 5.936509627525252597e+01 6.275398516414141170e+01
4.854557291666666430e+01 5.936249210858586167e+01 6.275185448232323182e+01
4.857824337121212466e+01 5.939326862373737725e+01 6.277742266414141170e+01
4.866145833333333570e+01 5.951309974747474740e+01 6.287247474747474740e+01
4.872407670454545325e+01 5.969014362373737725e+01 6.298859690656565391e+01
4.887279040404040131e+01 5.986442550505050519e+01 6.311300505050505194e+01
4.892822758838384090e+01 6.003870738636363313e+01 6.321626420454545325e+01
4.896685606060606233e+01 6.021685606060606233e+01 6.331644570707070585e+01
4.911367582070707272e+01 6.041954703282828376e+01 6.342286142676767469e+01
4.920876736111111427e+01 6.058645044191919027e+01 6.351669034090909349e+01
4.930366161616161946e+01 6.075378787878787534e+01 6.358933080808080973e+01
4.930567392676767469e+01 6.088443023989898961e+01 6.365321180555555713e+01
4.935602114898989612e+01 6.106561710858586167e+01 6.371413352272727337e+01
4.948161300505050519e+01 6.125386679292929415e+01 6.382836174242424221e+01
4.954403409090909349e+01 6.147443181818182012e+01 6.393497474747474740e+01
4.968757891414141170e+01 6.163170770202020066e+01 6.398776830808080973e+01
4.976507260101010388e+01 6.185124684343434609e+01 6.412160669191919737e+01
4.985400883838384090e+01 6.204561237373737725e+01 6.419744318181818699e+01
4.994038036616161946e+01 6.225319602272727337e+01 6.430527935606060908e+01
5.009150094696969546e+01 6.248370422979797922e+01 6.444992897727273373e+01
5.006762941919191690e+01 6.256541982323232531e+01 6.444988952020202078e+01
4.965506628787878896e+01 6.197009154040404155e+01 6.381257891414141170e+01
4.902450284090909349e+01 6.081017203282828376e+01 6.313813920454545325e+01
4.855563446969696884e+01 5.982994002525252597e+01 6.264291351010101039e+01
4.833510890151514872e+01 5.929233743686868507e+01 6.243659248737373701e+01
4.830196496212121104e+01 5.903476167929292728e+01 6.238798137626262275e+01
4.830429292929292728e+01 5.893323863636363313e+01 6.240419823232323182e+01
4.826637468434343248e+01 5.881451231060606233e+01 6.236217645202020066e+01
4.830433238636363313e+01 5.880259627525252597e+01 6.238135258838384090e+01
4.830729166666666430e+01 5.888241792929292728e+01 6.247900883838384090e+01
4.834288194444444287e+01 5.891832386363636687e+01 6.248287563131312794e+01
4.837215909090909349e+01 5.895659722222222143e+01 6.252430555555555713e+01
4.831624842171716949e+01 5.893935448232323182e+01 6.250090751262626299e+01
4.835858585858586167e+01 5.895123106060606233e+01 6.252430555555555713e+01
4.839267676767676818e+01 5.904135101010101039e+01 6.257449494949494806e+01
4.852308238636363313e+01 5.921815814393939092e+01 6.273346748737373701e+01
4.853776041666666430e+01 5.935988794191919027e+01 6.278854955808080973e+01
4.870513731060606233e+01 5.958676609848485128e+01 6.291568023989898961e+01
4.876637468434343248e+01 5.978215751262626299e+01 6.304415246212121104e+01
4.887322443181817988e+01 5.998149463383838054e+01 6.312354008838384090e+01
4.896527777777777857e+01 6.014756944444444287e+01 6.325268308080808310e+01
4.901716382575757791e+01 6.034797190656565391e+01 6.333787089646464352e+01
4.909765625000000000e+01 6.049412089646464352e+01 6.342467645202020066e+01
4.920000789141413833e+01 6.066954703282828376e+01 6.349625157828283051e+01
4.924060921717171624e+01 6.083230744949494806e+01 6.357236426767676818e+01
4.937279040404040131e+01 6.106723484848485128e+01 6.368671085858586167e+01
4.946677714646464352e+01 6.127769886363636687e+01 6.381983901515151558e+01
4.956072443181817988e+01 6.147281407828283051e+01 6.390873579545454675e+01
4.952884311868687206e+01 6.147833806818182012e+01 6.383960700757575779e+01
4.902331912878787534e+01 6.072249842171716949e+01 6.326163983585858830e+01
4.849731691919191690e+01 5.974053030303030454e+01 6.264188762626262275e+01
4.823141571969696884e+01 5.901392834595959869e+01 6.225950915404040131e+01
4.808558238636363313e+01 5.861572758838384090e+01 6.215581597222222143e+01
4.809122474747474740e+01 5.854624368686868507e+01 6.218450126262626299e+01
4.810191761363636687e+01 5.849996054292929415e+01 6.222502367424242209e+01
4.816118213383838054e+01 5.852071496212121104e+01 6.227560763888888573e+01
4.822099905303030454e+01 5.863592960858586167e+01 6.237488162878787534e+01
4.827817234848485128e+01 5.875276199494949481e+01 6.242810921717171624e+01
4.829580965909090651e+01 5.880890940656565391e+01 6.245711016414141170e+01
4.830247790404040131e+01 5.879079861111111427e+01 6.243426452020202078e+01
4.829667771464646364e+01 5.880677872474747403e+01 6.246239741161615910e+01
4.827627840909090651e+01 5.889165088383838054e+01 6.247056502525252597e+01
4.841406250000000000e+01 5.906668244949494806e+01 6.259619633838384090e+01
4.849980271464646364e+01 5.922502367424242209e+01 6.266315498737373701e+01
4.858108428030303116e+01 5.946492266414141170e+01 6.280409564393939092e+01
4.870797821969696884e+01 5.972818023989898961e+01 6.301195549242424221e+01
4.881470959595959869e+01 5.995012626262626299e+01 6.310621843434343248e+01
4.896077967171716949e+01 6.017353219696969546e+01 6.323666351010101039e+01
4.901006155303030454e+01 6.032808554292929415e+01 6.330693655303030454e+01
4.907559974747474740e+01 6.052541035353535648e+01 6.339962121212121104e+01
4.918304135101010388e+01 6.068572443181817988e+01 6.350927241161615910e+01
4.928989109848485128e+01 6.089389993686868507e+01 6.357713857323232531e+01
4.933258364898989612e+01 6.108431976010101039e+01 6.368501420454545325e+01
4.948283617424242209e+01 6.129565183080808310e+01 6.378854955808080973e+01
4.954671717171716949e+01 6.150726010101010388e+01 6.391177398989898961e+01
4.965297506313131493e+01 6.171421243686868507e+01 6.399814551767676818e+01
4.975201231060606233e+01 6.193525094696969546e+01 6.409481534090909349e+01
4.988525883838384090e+01 6.216840277777777857e+01 6.421401515151515582e+01
4.995123106060606233e+01 6.238241792929292728e+01 6.434406565656566102e+01
5.008566130050505194e+01 6.261643781565656752e+01 6.445292771464646364e+01
5.017850378787878896e+01 6.282812500000000000e+01 6.454150883838383379e+01
4.990830176767676818e+01 6.252335858585858830e+01 6.421717171717172334e+01
4.926183712121212466e+01 6.150552398989898961e+01 6.338352272727272663e+01
4.872340593434343248e+01 6.040459280303030454e+01 6.274960542929292728e+01
4.842601799242424221e+01 5.972005208333333570e+01 6.249814551767676818e+01
4.835140467171716949e+01 5.942447916666666430e+01 6.243016098484848442e+01
4.839117739898989612e+01 5.936497790404040131e+01 6.246772411616161946e+01
4.840194917929292728e+01 5.934655145202020066e+01 6.248196811868687206e+01
4.841354955808080973e+01 5.939176925505050519e+01 6.252544981060606233e+01
4.852994791666666430e+01 5.948559816919191690e+01 6.263553503787878896e+01
4.852505523989898961e+01 5.951732165404040131e+01 6.266189236111111427e+01
4.853661616161615910e+01 5.949731691919191690e+01 6.264299242424242209e+01
4.845079703282828376e+01 5.942554450757575779e+01 6.260515309343434609e+01
4.847545770202020066e+01 5.942179608585858830e+01 6.260203598484848442e+01
4.848658459595959869e+01 5.947316919191919027e+01 6.263462752525252597e+01
4.855172821969696884e+01 5.958581912878787534e+01 6.270103377525252597e+01
4.865534248737373701e+01 5.977103061868687206e+01 6.287282986111111427e+01
4.876396780303030454e+01 5.996961805555555713e+01 6.296519886363636687e+01
4.881257891414141170e+01 6.014922664141413833e+01 6.307031250000000000e+01
4.894570707070707272e+01 6.032054924242424221e+01 6.317676767676767469e+01
4.898603219696969546e+01 6.047277462121212466e+01 6.325323547979797922e+01
4.905713383838384090e+01 6.062452651515151558e+01 6.332559974747474740e+01
4.912350063131312794e+01 6.075860164141413833e+01 6.339196654040404155e+01
4.920711016414141170e+01 6.095079703282828376e+01 6.348346748737373701e+01
4.928026357323232531e+01 6.109560448232323182e+01 6.356735321969696884e+01
4.930768623737373701e+01 6.119026199494949481e+01 6.358609532828283051e+01
4.896796085858586167e+01 6.069113005050505194e+01 6.315151515151514872e+01
4.845363794191919027e+01 5.970947758838384090e+01 6.250950915404040131e+01
4.805042613636363313e+01 5.886955492424242209e+01 6.205705492424242209e+01
4.792613636363636687e+01 5.838857323232323182e+01 6.187121212121212466e+01
4.787413194444444287e+01 5.821914457070707272e+01 6.186750315656565391e+01
4.790759154040404155e+01 5.817511047979797922e+01 6.190680239898989612e+01
4.791753472222222143e+01 5.816863952020202078e+01 6.192511047979797922e+01
4.803353851010101039e+01 5.828132891414141170e+01 6.203069760101010388e+01
4.800138099747474740e+01 5.838884943181817988e+01 6.207729640151514872e+01
4.809240845959595845e+01 5.846440972222222143e+01 6.215522411616161946e+01
4.804683554292929415e+01 5.846902619949494806e+01 6.211485953282828376e+01
4.809670928030303116e+01 5.844835069444444287e+01 6.214610953282828376e+01
4.806936553030303116e+01 5.848761047979797922e+01 6.216011679292929415e+01
4.812381628787878896e+01 5.857851957070707272e+01 6.221093750000000000e+01
4.820032354797979934e+01 5.877166193181817988e+01 6.235420612373737725e+01
4.832899305555555713e+01 5.895762310606060908e+01 6.246614583333333570e+01
4.839709595959595845e+01 5.916856060606060908e+01 6.255871212121212466e+01
4.851428345959595845e+01 5.934998421717171624e+01 6.269657512626262275e+01
4.857749368686868507e+01 5.956218434343434609e+01 6.278898358585858830e+01
4.866556186868687206e+01 5.970265151515151558e+01 6.287910353535353636e+01
4.873038983585858830e+01 5.985365372474747403e+01 6.291031407828283051e+01
4.878006628787878896e+01 6.003890467171716949e+01 6.303243371212121104e+01
4.886000631313131493e+01 6.019633838383838054e+01 6.311426767676767469e+01
4.900181502525252597e+01 6.040222537878787534e+01 6.323839962121212466e+01
4.905847537878787534e+01 6.056226325757575779e+01 6.330405618686868507e+01
4.912937973484848442e+01 6.074522569444444287e+01 6.340021306818182012e+01
4.919554924242424221e+01 6.092897727272727337e+01 6.349116161616161946e+01
4.931762941919191690e+01 6.114970012626262275e+01 6.361245265151514872e+01
4.940976167929292728e+01 6.134126420454545325e+01 6.369211647727272663e+01
4.950931186868687206e+01 6.153282828282828376e+01 6.375410353535353636e+01
4.964019097222222143e+01 6.175919349747474740e+01 6.389129577020202078e+01
4.973196811868687206e+01 6.193383049242424221e+01 6.395939867424242209e+01
4.951728219696969546e+01 6.175686553030303116e+01 6.372924558080808310e+01
4.887058080808080973e+01 6.066193181818182012e+01 6.293308080808080973e+01
4.821926294191919027e+01 5.938845486111111427e+01 6.223094223484848442e+01
4.794673295454545325e+01 5.856510416666666430e+01 6.184761679292929415e+01
4.775508996212121104e+01 5.812314551767676818e+01 6.176045612373737725e+01
4.776976799242424221e+01 5.791307607323232531e+01 6.173820233585858830e+01
4.775698390151514872e+01 5.784378945707070585e+01 6.175619476010101039e+01
4.777320075757575779e+01 5.773453282828283051e+01 6.172806186868687206e+01
4.780496369949494806e+01 5.778507733585858830e+01 6.180591066919191690e+01
4.784418402777777857e+01 5.784734059343434609e+01 6.186706912878787534e+01
4.783297821969696884e+01 5.791141887626262275e+01 6.191883680555555713e+01
4.788324652777777857e+01 5.791654829545454675e+01 6.190360637626262275e+01
4.781052714646464352e+01 5.791279987373737725e+01 6.189464962121212466e+01
4.789966066919191690e+01 5.795142834595959869e+01 6.194464172979797922e+01
4.793821022727272663e+01 5.806068497474747403e+01 6.201949179292929415e+01
4.802860637626262275e+01 5.821863162878787534e+01 6.213940183080808310e+01
4.806857638888888573e+01 5.842810921717171624e+01 6.226254734848485128e+01
4.821409406565656752e+01 5.865143623737373701e+01 6.238297032828283051e+01
4.825836489898989612e+01 5.885148358585858830e+01 6.248895202020202078e+01
4.832236426767676818e+01 5.904963699494949481e+01 6.254505997474747403e+01
4.841792929292929415e+01 5.920849116161615910e+01 6.264646464646464352e+01
4.852442392676767469e+01 5.938711332070707272e+01 6.271223958333333570e+01
4.860306186868687206e+01 5.958648989898989612e+01 6.283412247474747403e+01
4.868844696969696884e+01 5.973248106060606233e+01 6.291824494949494806e+01
4.875228851010101039e+01 5.993678977272727337e+01 6.301523042929292728e+01
4.883802872474747403e+01 6.011501736111111427e+01 6.314090119949494806e+01
4.897818023989898961e+01 6.033676609848485128e+01 6.327789614898989612e+01
4.902663352272727337e+01 6.051511205808080973e+01 6.334876104797979934e+01
4.914307133838384090e+01 6.073682133838384090e+01 6.346946022727272663e+01
4.926353377525252597e+01 6.094724589646464352e+01 6.359623579545454675e+01
4.938758680555555713e+01 6.119377367424242209e+01 6.373102114898989612e+01
4.943959122474747403e+01 6.136809501262626299e+01 6.378649779040404155e+01
4.914062500000000000e+01 6.098200757575757791e+01 6.338809974747474740e+01
4.853708964646464352e+01 5.987973484848485128e+01 6.262073863636363313e+01
4.798974116161615910e+01 5.886600378787878896e+01 6.201657196969696884e+01
4.785270675505050519e+01 5.821634311868687206e+01 6.175011837121212466e+01
4.775449810606060908e+01 5.793063446969696884e+01 6.175891729797979934e+01
4.778835227272727337e+01 5.784753787878787534e+01 6.176294191919191690e+01
4.770691287878787534e+01 5.782260101010101039e+01 6.176941287878787534e+01
4.778515625000000000e+01 5.787354008838384090e+01 6.183692392676767469e+01
4.782354797979797922e+01 5.800962752525252597e+01 6.194444444444444287e+01
4.792743844696969546e+01 5.812109375000000000e+01 6.200335385101010388e+01
4.791812657828283051e+01 5.814318970959595845e+01 6.200603693181817988e+01
4.792207228535353636e+01 5.813671875000000000e+01 6.197715435606060908e+01
4.789970012626262275e+01 5.812192234848485128e+01 6.198808396464646364e+01
4.798086332070707272e+01 5.821508049242424221e+01 6.202331912878787534e+01
4.800110479797979934e+01 5.837152777777777857e+01 6.215135732323232531e+01
4.812559185606060908e+01 5.857398200757575779e+01 6.226874210858586167e+01
4.824301609848485128e+01 5.879888731060606233e+01 6.240273832070707272e+01
4.831597222222222143e+01 5.900852272727272663e+01 6.252430555555555713e+01
4.842929292929292728e+01 5.921953914141413833e+01 6.261584595959595845e+01
4.852876420454545325e+01 5.943138415404040131e+01 6.271689551767676818e+01
4.856889204545454675e+01 5.958641098484848442e+01 6.279726957070707272e+01
4.865901199494949481e+01 5.976854482323232531e+01 6.288707386363636687e+01
4.872320864898989612e+01 5.991607481060606233e+01 6.295063920454545325e+01
4.879139046717171624e+01 6.010673137626262275e+01 6.307169349747474740e+01
4.890632891414141170e+01 6.033293876262626299e+01 6.319199810606060908e+01
4.899498895202020066e+01 6.054628314393939092e+01 6.333100536616161946e+01
4.894969223484848442e+01 6.050524779040404155e+01 6.322273516414141170e+01
4.847356376262626299e+01 5.978622159090909349e+01 6.260708648989898961e+01
4.800639204545454675e+01 5.880752840909090651e+01 6.197119633838384090e+01
4.774017518939393767e+01 5.811028251262626299e+01 6.165715751262626299e+01
4.763652146464646364e+01 5.781928661616161946e+01 6.160684974747474740e+01
4.770063920454545325e+01 5.776534880050505194e+01 6.164887152777777857e+01
4.770659722222222143e+01 5.779987373737373701e+01 6.171369949494949481e+01
4.781731376262626299e+01 5.792305871212121104e+01 6.181163194444444287e+01
4.787338226010101039e+01 5.810901988636363313e+01 6.191883680555555713e+01
4.789772727272727337e+01 5.821338383838384090e+01 6.198705808080808310e+01
4.787484217171716949e+01 5.824731691919191690e+01 6.197285353535353636e+01
4.789650410353535648e+01 5.825572127525252597e+01 6.193706597222222143e+01
4.790017361111111427e+01 5.827896148989898961e+01 6.196725063131312794e+01
4.794633838383838054e+01 5.835369318181817988e+01 6.203787878787878896e+01
4.801941287878787534e+01 5.851925505050505194e+01 6.210243055555555713e+01
4.819255050505050519e+01 5.874558080808080973e+01 6.225015782828283051e+01
4.823946496212121104e+01 5.893911773989898961e+01 6.237961647727272663e+01
4.835211489898989612e+01 5.913446969696969546e+01 6.248579545454545325e+01
4.837701231060606233e+01 5.934371054292929415e+01 6.257224589646464352e+01
4.848449337121212466e+01 5.949554135101010388e+01 6.266157670454545325e+01
4.852075441919191690e+01 5.965711805555555713e+01 6.275181502525252597e+01
4.861501736111111427e+01 5.978626104797979934e+01 6.279872948232323182e+01
4.864693813131312794e+01 5.991508838383838054e+01 6.284990530303030454e+01
4.872502367424242209e+01 6.007256155303030454e+01 6.294408933080808310e+01
4.884272411616161946e+01 6.026696654040404155e+01 6.305595012626262275e+01
4.899471275252525260e+01 6.051507260101010388e+01 6.318536931818182012e+01
4.905074179292929415e+01 6.064480744949494806e+01 6.327312184343434609e+01
4.869870580808080973e+01 6.027304292929292728e+01 6.288604797979797922e+01
4.809276357323232531e+01 5.923023200757575779e+01 6.214058554292929415e+01
4.767949021464646364e+01 5.824625157828283051e+01 6.158289930555555713e+01
4.751534880050505194e+01 5.770063920454545325e+01 6.140139678030303116e+01
4.748113952020202078e+01 5.744247159090909349e+01 6.135550820707070585e+01
4.748354640151514872e+01 5.740116003787878896e+01 6.138364109848485128e+01
4.750402462121212466e+01 5.738312815656565391e+01 6.142921401515151558e+01
4.754995265151514872e+01 5.745730744949494806e+01 6.147072285353535648e+01
4.769128787878787534e+01 5.759627525252525260e+01 6.160811237373737725e+01
4.765171243686868507e+01 5.765013415404040131e+01 6.162109375000000000e+01
4.766189236111111427e+01 5.765778882575757791e+01 6.163884943181817988e+01
4.764283459595959869e+01 5.760306186868687206e+01 6.158428030303030454e+01
4.765376420454545325e+01 5.762298768939393767e+01 6.159031723484848442e+01
4.769582544191919027e+01 5.770687342171716949e+01 6.165526357323232531e+01
4.775067077020202078e+01 5.788072127525252597e+01 6.175745738636363313e+01
4.779375789141413833e+01 5.808526672979797922e+01 6.188719223484848442e+01
4.794101167929292728e+01 5.828681344696969546e+01 6.200193339646464352e+01
4.804561237373737725e+01 5.845486111111111427e+01 6.209659090909090651e+01
4.813892834595959869e+01 5.863766571969696884e+01 6.219322127525252597e+01
4.818817077020202078e+01 5.882232481060606233e+01 6.229170612373737725e+01
4.827667297979797922e+01 5.898169191919191690e+01 6.233317550505050519e+01
4.830910669191919027e+01 5.912807765151514872e+01 6.243442234848485128e+01
4.840826231060606233e+01 5.932003630050505194e+01 6.254257417929292728e+01
4.844109059343434609e+01 5.945056029040404155e+01 6.260759943181817988e+01
4.856447285353535648e+01 5.960850694444444287e+01 6.272435290404040131e+01
4.860763888888888573e+01 5.981502525252525260e+01 6.280602904040404155e+01
4.872170928030303116e+01 5.997123579545454675e+01 6.288869160353535648e+01
4.882354797979797922e+01 6.016745580808080973e+01 6.302840909090909349e+01
4.890731534090909349e+01 6.033155776515151558e+01 6.309797190656565391e+01
4.894771938131312794e+01 6.056924715909090651e+01 6.320292771464646364e+01
4.913821811868687206e+01 6.081924715909090651e+01 6.336470170454545325e+01
4.916785037878787534e+01 6.092621527777777857e+01 6.339733270202020066e+01
4.881356534090909349e+01 6.045087594696969546e+01 6.293856534090909349e+01
4.814251893939393767e+01 5.922774621212121104e+01 6.209106691919191690e+01
4.761012468434343248e+01 5.806167140151514872e+01 6.142278251262626299e+01
4.739634627525252597e+01 5.735215435606060908e+01 6.121200284090909349e+01
4.731660353535353636e+01 5.698737373737373701e+01 6.113999368686868507e+01
4.725915404040404155e+01 5.684406565656565391e+01 6.110101010101010388e+01
4.719823232323232531e+01 5.666429924242424221e+01 6.107165404040404155e+01
4.715625000000000000e+01 5.661253156565656752e+01 6.108396464646464352e+01
4.723796559343434609e+01 5.666157670454545325e+01 6.114895044191919027e+01
4.730070233585858830e+01 5.677387152777777857e+01 6.125477430555555713e+01
4.734244791666666430e+01 5.681467013888888573e+01 6.126637468434343248e+01
4.731265782828283051e+01 5.682291666666666430e+01 6.125047348484848442e+01
4.732796717171716949e+01 5.684027777777777857e+01 6.126262626262626299e+01
4.736414930555555713e+01 5.691828440656565391e+01 6.132106218434343248e+01
4.747987689393939092e+01 5.708183396464646364e+01 6.142463699494949481e+01
4.752927714646464352e+01 5.729458648989898961e+01 6.157994002525252597e+01
4.770395359848485128e+01 5.750714172979797922e+01 6.170584753787878896e+01
4.780046559343434609e+01 5.772202493686868507e+01 6.179541508838384090e+01
4.786987058080808310e+01 5.792005997474747403e+01 6.190348800505050519e+01
4.793592171717171624e+01 5.814125631313131493e+01 6.201878156565656752e+01
4.800130208333333570e+01 5.827907986111111427e+01 6.208289930555555713e+01
4.803772095959595845e+01 5.843371212121212466e+01 6.215104166666666430e+01
4.815364583333333570e+01 5.862460542929292728e+01 6.227075441919191690e+01
4.821046401515151558e+01 5.880437184343434609e+01 6.233956755050505194e+01
4.826811079545454675e+01 5.901637468434343248e+01 6.244282670454545325e+01
4.836099273989898961e+01 5.922731218434343248e+01 6.256206597222222143e+01
4.848370422979797922e+01 5.943225220959595845e+01 6.266631155303030454e+01
4.855220170454545325e+01 5.957840119949494806e+01 6.274301609848485128e+01
4.862046243686868507e+01 5.976124526515151558e+01 6.285625789141413833e+01
4.870225694444444287e+01 5.998098169191919027e+01 6.298035037878787534e+01
4.886355744949494806e+01 6.020967487373737725e+01 6.310314078282828376e+01
4.890017361111111427e+01 6.037239583333333570e+01 6.319010416666666430e+01
4.870722853535353636e+01 6.013967803030303116e+01 6.290593434343434609e+01
4.808250473484848442e+01 5.905283301767676818e+01 6.210207544191919027e+01
4.759067234848485128e+01 5.791911300505050519e+01 6.142069128787878896e+01
4.729640151515151558e+01 5.714756944444444287e+01 6.116351010101010388e+01
4.721665877525252597e+01 5.678484059343434609e+01 6.108960700757575779e+01
4.717128314393939092e+01 5.662109375000000000e+01 6.106569602272727337e+01
4.713040561868687206e+01 5.651455965909090651e+01 6.104928188131312794e+01
4.714393939393939092e+01 5.650662878787878896e+01 6.109422348484848442e+01
4.724131944444444287e+01 5.658207070707070585e+01 6.115609217171716949e+01
4.728503787878787534e+01 5.671464646464646364e+01 6.125236742424242209e+01
4.733968592171716949e+01 5.677513415404040131e+01 6.128018465909090651e+01
4.732189078282828376e+01 5.679363952020202078e+01 6.128085542929292728e+01
4.734623579545454675e+01 5.681672190656565391e+01 6.129620422979797922e+01
4.731001420454545325e+01 5.689271622474747403e+01 6.133353061868687206e+01
4.745908301767676818e+01 5.706972064393939092e+01 6.145908301767676818e+01
4.756340751262626299e+01 5.726542771464646364e+01 6.156687973484848442e+01
4.772234059343434609e+01 5.750785195707070585e+01 6.170782039141413833e+01
4.775982481060606233e+01 5.773188920454545325e+01 6.182627051767676818e+01
4.786067708333333570e+01 5.793248895202020066e+01 6.194906092171716949e+01
4.799175347222222143e+01 5.814153251262626299e+01 6.205377998737373701e+01
4.803878630050505194e+01 5.832792771464646364e+01 6.214752998737373701e+01
4.809221117424242209e+01 5.848599273989898961e+01 6.223520359848485128e+01
4.815826231060606233e+01 5.864200599747474740e+01 6.230267518939393767e+01
4.823820233585858830e+01 5.880180713383838054e+01 6.235452178030303116e+01
4.834552556818182012e+01 5.901250789141413833e+01 6.247557607323232531e+01
4.840108112373737725e+01 5.924767203282828376e+01 6.260941445707070585e+01
4.850580018939393767e+01 5.941552241161615910e+01 6.269266887626262275e+01
4.840171243686868507e+01 5.941070864898989612e+01 6.261083491161615910e+01
4.799025410353535648e+01 5.869101167929292728e+01 6.204123263888888573e+01
4.751957070707070585e+01 5.768150252525252597e+01 6.149905303030303116e+01
4.726566445707070585e+01 5.695300662878787534e+01 6.118722380050505194e+01
4.716141887626262275e+01 5.660696811868687206e+01 6.112748579545454675e+01
4.717653093434343248e+01 5.653543244949494806e+01 6.113738952020202078e+01
4.716055082070707272e+01 5.651550662878787534e+01 6.117412405303030454e+01
4.720225694444444287e+01 5.652959280303030454e+01 6.120636047979797922e+01
4.731419665404040131e+01 5.667041508838384090e+01 6.133913352272727337e+01
4.741189236111111427e+01 5.681782670454545325e+01 6.144093276515151558e+01
4.738154987373737725e+01 5.688439078282828376e+01 6.146346275252525260e+01
4.740246212121212466e+01 5.690893308080808310e+01 6.146322601010101039e+01
4.739583333333333570e+01 5.693781565656565391e+01 6.147174873737373701e+01
4.747084122474747403e+01 5.705180713383838054e+01 6.157421875000000000e+01
4.755788352272727337e+01 5.723654513888888573e+01 6.167499210858586167e+01
4.768225220959595845e+01 5.744771938131312794e+01 6.178515625000000000e+01
4.774108270202020066e+01 5.765664457070707272e+01 6.191137941919191690e+01
4.781624842171716949e+01 5.791015625000000000e+01 6.196981534090909349e+01
4.793248895202020066e+01 5.809442077020202078e+01 6.210247001262626299e+01
4.806202651515151558e+01 5.831013257575757791e+01 6.220123106060606233e+01
4.807776988636363313e+01 5.848954387626262275e+01 6.227189867424242209e+01
4.816260258838384090e+01 5.867223011363636687e+01 6.240029198232323182e+01
4.821385732323232531e+01 5.886474116161615910e+01 6.248200757575757791e+01
4.831652462121212466e+01 5.905184659090909349e+01 6.256510416666666430e+01
4.838273358585858830e+01 5.924889520202020066e+01 6.263794191919191690e+01
4.849183238636363313e+01 5.945995107323232531e+01 6.277355587121212466e+01
4.856096117424242209e+01 5.965597380050505194e+01 6.288277304292929415e+01
4.868450126262626299e+01 5.987405303030303116e+01 6.297821969696969546e+01
4.874435763888888573e+01 6.006238162878787534e+01 6.308100536616161946e+01
4.881979955808080973e+01 6.024530460858586167e+01 6.319653566919191690e+01
4.888462752525252597e+01 6.040135732323232531e+01 6.322238005050505194e+01
4.900749684343434609e+01 6.060298295454545325e+01 6.334019886363636687e+01
4.912847222222222143e+01 6.085258838383838054e+01 6.346701388888888573e+01
4.918197601010101039e+01 6.102178030303030454e+01 6.354292929292929415e+01
4.892629419191919027e+01 6.068150252525252597e+01 6.320880681818182012e+01
4.837961647727272663e+01 5.969764046717171624e+01 6.249056976010101039e+01
4.796519886363636687e+01 5.885677083333333570e+01 6.203953598484848442e+01
4.781664299242424221e+01 5.842712279040404155e+01 6.194148516414141170e+01
4.778878630050505194e+01 5.832303503787878896e+01 6.198733428030303116e+01
4.791461489898989612e+01 5.831534090909090651e+01 6.203282828282828376e+01
4.786178188131312794e+01 5.834157986111111427e+01 6.206080334595959869e+01
4.793071338383838054e+01 5.841224747474747403e+01 6.212689393939393767e+01
4.799285827020202078e+01 5.855030776515151558e+01 6.222360321969696884e+01
4.801598011363636687e+01 5.858068970959595845e+01 6.222857481060606233e+01
4.797983743686868507e+01 5.858037405303030454e+01 6.221247632575757791e+01
4.800055239898989612e+01 5.852754103535353636e+01 6.219247159090909349e+01
4.798086332070707272e+01 5.856072443181817988e+01 6.219992897727272663e+01
4.804320549242424221e+01 5.863158933080808310e+01 6.225627367424242209e+01
4.809402619949494806e+01 5.879999210858586167e+01 6.233660827020202078e+01
4.821953914141413833e+01 5.897727272727272663e+01 6.245501893939393767e+01
4.820265151515151558e+01 5.912689393939393767e+01 6.253740530303030454e+01
4.832922979797979934e+01 5.930003156565656752e+01 6.261237373737373701e+01
4.837937973484848442e+01 5.945561079545454675e+01 6.270387468434343248e+01
4.847151199494949481e+01 5.957757260101010388e+01 6.273429608585858830e+01
4.850059185606060908e+01 5.969424715909090651e+01 6.276463857323232531e+01
4.855689709595959869e+01 5.983120265151514872e+01 6.283909406565656752e+01
4.862140940656565391e+01 5.996705334595959869e+01 6.290392203282828376e+01
4.876929450757575779e+01 6.015802556818182012e+01 6.303555082070707272e+01
4.880303030303030454e+01 6.035448232323232531e+01 6.309643308080808310e+01
4.881573547979797922e+01 6.042921401515151558e+01 6.312176452020202078e+01
4.846575126262626299e+01 5.994981060606060908e+01 6.273374368686868507e+01
4.803673453282828376e+01 5.916599589646464352e+01 6.221160827020202078e+01
4.783139993686868507e+01 5.858424084595959869e+01 6.192735953282828376e+01
4.779505997474747403e+01 5.834114583333333570e+01 6.192763573232323182e+01
4.778089488636363313e+01 5.829431029040404155e+01 6.192956912878787534e+01
4.783467487373737725e+01 5.830263573232323182e+01 6.194878472222222143e+01
4.779841382575757791e+01 5.833108428030303116e+01 6.200011837121212466e+01
4.795872790404040131e+01 5.841958648989898961e+01 6.209272411616161946e+01
4.793852588383838054e+01 5.852643623737373701e+01 6.216327335858586167e+01
4.798907039141413833e+01 5.856277619949494806e+01 6.213064236111111427e+01
4.793939393939393767e+01 5.855871212121212466e+01 6.211221590909090651e+01
4.795063920454545325e+01 5.855291193181817988e+01 6.212377683080808310e+01
4.794929766414141170e+01 5.861848958333333570e+01 6.215889362373737725e+01
4.802754103535353636e+01 5.872561553030303116e+01 6.221440972222222143e+01
4.810862531565656752e+01 5.888387784090909349e+01 6.226661142676767469e+01
4.817274305555555713e+01 5.905011047979797922e+01 6.238454861111111427e+01
4.823066603535353636e+01 5.921188446969696884e+01 6.246946022727272663e+01
4.832019412878787534e+01 5.937290877525252597e+01 6.252694917929292728e+01
4.839535984848485128e+01 5.951278409090909349e+01 6.258933080808080973e+01
4.843288352272727337e+01 5.963869160353535648e+01 6.261154513888888573e+01
4.843067392676767469e+01 5.973054766414141170e+01 6.266599589646464352e+01
4.851672979797979934e+01 5.989015151515151558e+01 6.274889520202020066e+01
4.854991319444444287e+01 6.002481849747474740e+01 6.281364425505050519e+01
4.869105113636363313e+01 6.019562815656565391e+01 6.287791982323232531e+01
4.874806660353535648e+01 6.036075599747474740e+01 6.298275726010101039e+01
4.881956281565656752e+01 6.054936079545454675e+01 6.306214488636363313e+01
4.889709595959595845e+01 6.072364267676767469e+01 6.315751262626262275e+01
4.897541824494949481e+01 6.090123895202020066e+01 6.318138415404040131e+01
4.906589330808080973e+01 6.110471906565656752e+01 6.327564709595959869e+01
4.916788983585858830e+01 6.125011837121212466e+01 6.335223327020202078e+01
4.922703598484848442e+01 6.143110795454545325e+01 6.342763573232323182e+01
4.933017676767676818e+01 6.157212752525252597e+01 6.350757575757575779e+01
4.936975220959595845e+01 6.173433554292929415e+01 6.358155776515151558e+01
4.947253787878787534e+01 6.190751262626262275e+01 6.367124368686868507e+01
4.922561553030303116e+01 6.160740214646464352e+01 6.335755997474747403e+01
4.865901199494949481e+01 6.067905618686868507e+01 6.270793876262626299e+01
4.822683869949494806e+01 5.974893465909090651e+01 6.224672506313131493e+01
4.807844065656565391e+01 5.926625631313131493e+01 6.211474116161615910e+01
4.802395044191919027e+01 5.909939236111111427e+01 6.211580650252525260e+01
4.804707228535353636e+01 5.904296875000000000e+01 6.213198390151514872e+01
4.802225378787878896e+01 5.898074494949494806e+01 6.212989267676767469e+01
4.803117108585858830e+01 5.890506628787878896e+01 6.210898042929292728e+01
4.805500315656565391e+01 5.893742108585858830e+01 6.215964330808080973e+01
4.808984375000000000e+01 5.898962279040404155e+01 6.220237531565656752e+01
4.806143465909090651e+01 5.898851799242424221e+01 6.220505839646464352e+01
4.809702493686868507e+01 5.894992897727272663e+01 6.218982796717171624e+01
4.800631313131312794e+01 5.887815656565656752e+01 6.215025252525252597e+01
4.807753314393939092e+01 5.893438289141413833e+01 6.218106849747474740e+01
4.808542455808080973e+01 5.900714172979797922e+01 6.222447127525252597e+01
4.819566761363636687e+01 5.916062973484848442e+01 6.233518781565656752e+01
4.823851799242424221e+01 5.930212279040404155e+01 6.238624526515151558e+01
4.832741477272727337e+01 5.942732007575757791e+01 6.244815340909090651e+01
4.833652935606060908e+01 5.953728693181817988e+01 6.250177556818182012e+01
4.840530303030303116e+01 5.960148358585858830e+01 6.255176767676767469e+01
4.844176136363636687e+01 5.972238005050505194e+01 6.260827020202020066e+01
4.851613794191919027e+01 5.984473642676767469e+01 6.265329071969696884e+01
4.854142992424242209e+01 5.996314709595959869e+01 6.271977588383838054e+01
4.862578914141413833e+01 6.009722222222222143e+01 6.280571338383838054e+01
4.866725852272727337e+01 6.024080650252525260e+01 6.286549084595959869e+01
4.879099589646464352e+01 6.040636837121212466e+01 6.293793402777777857e+01
4.880894886363636687e+01 6.056100063131312794e+01 6.298729482323232531e+01
4.890546085858586167e+01 6.071732954545454675e+01 6.307007575757575779e+01
4.890751262626262275e+01 6.084880050505050519e+01 6.310243055555555713e+01
4.899857954545454675e+01 6.099510732323232531e+01 6.314962121212121104e+01
4.909876104797979934e+01 6.115084438131312794e+01 6.323749210858586167e+01
4.922107796717171624e+01 6.133392518939393767e+01 6.334907670454545325e+01
4.925935132575757791e+01 6.145205965909090651e+01 6.340297506313131493e+01
4.901917613636363313e+01 6.113723169191919027e+01 6.310566603535353636e+01
4.848780776515151558e+01 6.024869791666666430e+01 6.251511205808080973e+01
4.812594696969696884e+01 5.941461489898989612e+01 6.215467171717171624e+01
4.797328756313131493e+01 5.900580018939393767e+01 6.203342013888888573e+01
4.795695233585858830e+01 5.885957228535353636e+01 6.201503314393939092e+01
4.795079703282828376e+01 5.882690183080808310e+01 6.205038667929292728e+01
4.798717645202020066e+01 5.874680397727272663e+01 6.208802872474747403e+01
4.794791666666666430e+01 5.873690025252525260e+01 6.207812500000000000e+01
4.805042613636363313e+01 5.878432765151514872e+01 6.211876578282828376e+01
4.807204861111111427e+01 5.882536300505050519e+01 6.215569760101010388e+01
4.801822916666666430e+01 5.883625315656565391e+01 6.213328598484848442e+01
4.799633049242424221e+01 5.879715119949494806e+01 6.212054135101010388e+01
4.806159248737373701e+01 5.879959753787878896e+01 6.212219854797979934e+01
4.807137784090909349e+01 5.883510890151514872e+01 6.215913036616161946e+01
4.811758207070707272e+01 5.894839015151514872e+01 6.222774621212121104e+01
4.817676767676767469e+01 5.907780934343434609e+01 6.232386363636363313e+01
4.827079387626262275e+01 5.924222695707070585e+01 6.242341382575757791e+01
4.836142676767676818e+01 5.937847222222222143e+01 6.252225378787878896e+01
4.842822758838384090e+01 5.951929450757575779e+01 6.257926925505050519e+01
4.845044191919191690e+01 5.960179924242424221e+01 6.263809974747474740e+01
4.852245107323232531e+01 5.974972380050505194e+01 6.268012152777777857e+01
4.854577020202020066e+01 5.984232954545454675e+01 6.277146464646464352e+01
4.865329071969696884e+01 5.999609375000000000e+01 6.283716066919191690e+01
4.869231376262626299e+01 6.013391729797979934e+01 6.289480744949494806e+01
4.879458648989898961e+01 6.026775568181817988e+01 6.297103851010101039e+01
4.885720486111111427e+01 6.047368213383838054e+01 6.308747632575757791e+01
4.893990688131312794e+01 6.062724905303030454e+01 6.313024779040404155e+01
4.889674084595959869e+01 6.059607796717171624e+01 6.307224589646464352e+01
4.853306502525252597e+01 5.994578598484848442e+01 6.262744633838384090e+01
4.811221590909090651e+01 5.917234848484848442e+01 6.215151515151514872e+01
4.801526988636363313e+01 5.869424715909090651e+01 6.197360321969696884e+01
4.796231849747474740e+01 5.854060132575757791e+01 6.197099905303030454e+01
4.801021938131312794e+01 5.851747948232323182e+01 6.202363478535353636e+01
4.800718118686868507e+01 5.852754103535353636e+01 6.208846275252525260e+01
4.808116319444444287e+01 5.859394728535353636e+01 6.215392203282828376e+01
4.810629734848485128e+01 5.871961805555555713e+01 6.222261679292929415e+01
4.815948547979797922e+01 5.879900568181817988e+01 6.225149936868687206e+01
4.813170770202020066e+01 5.880247790404040131e+01 6.225781250000000000e+01
4.814453125000000000e+01 5.877047821969696884e+01 6.223638731060606233e+01
4.811596433080808310e+01 5.877489741161615910e+01 6.225169665404040131e+01
4.816978377525252597e+01 5.884086963383838054e+01 6.229699337121212466e+01
4.823433554292929415e+01 5.897281407828283051e+01 6.238411458333333570e+01
4.833013731060606233e+01 5.912717013888888573e+01 6.249491003787878896e+01
4.841354955808080973e+01 5.927166193181817988e+01 6.260688920454545325e+01
4.847581281565656752e+01 5.945324337121212466e+01 6.268698705808080973e+01
4.851455965909090651e+01 5.962377683080808310e+01 6.273899147727272663e+01
4.858704229797979934e+01 5.973524305555555713e+01 6.282788825757575779e+01
4.868209438131312794e+01 5.988806029040404155e+01 6.290179135101010388e+01
4.869760101010101039e+01 5.998974116161615910e+01 6.296369949494949481e+01
4.877205650252525260e+01 6.013569286616161946e+01 6.301526988636363313e+01
4.886138731060606233e+01 6.028468276515151558e+01 6.311896306818182012e+01
4.894345801767676818e+01 6.043967013888888573e+01 6.322407670454545325e+01
4.901104797979797922e+01 6.060653409090909349e+01 6.329292929292929415e+01
4.910152304292929415e+01 6.078949652777777857e+01 6.341323390151514872e+01
4.919069602272727337e+01 6.094700915404040131e+01 6.345016571969696884e+01
4.922597064393939092e+01 6.112653882575757791e+01 6.353499842171716949e+01
4.935531092171716949e+01 6.130259627525252597e+01 6.362425031565656752e+01
4.943477746212121104e+01 6.147818023989898961e+01 6.370845170454545325e+01
4.952410827020202078e+01 6.166820549242424221e+01 6.379241635101010388e+01
4.951033775252525260e+01 6.169957386363636687e+01 6.377327967171716949e+01
4.913735006313131493e+01 6.112109375000000000e+01 6.328460385101010388e+01
4.860491635101010388e+01 6.014658301767676818e+01 6.276811079545454675e+01
4.832173295454545325e+01 5.943300189393939092e+01 6.246377840909090651e+01
4.825793087121212466e+01 5.914887152777777857e+01 6.238735006313131493e+01
4.832323232323232531e+01 5.909895833333333570e+01 6.244886363636363313e+01
4.832485006313131493e+01 5.908274147727272663e+01 6.247699652777777857e+01
4.836308396464646364e+01 5.911829229797979934e+01 6.251696654040404155e+01
4.841796875000000000e+01 5.919685132575757791e+01 6.261462279040404155e+01
4.849944760101010388e+01 5.928811553030303116e+01 6.267163825757575779e+01
4.846981534090909349e+01 5.927616003787878896e+01 6.266725852272727337e+01
4.842763573232323182e+01 5.922451073232323182e+01 6.262902462121212466e+01
4.839078282828283051e+01 5.917787247474747403e+01 6.263052398989898961e+01
4.841500946969696884e+01 5.917637310606060908e+01 6.262460542929292728e+01
4.845454545454545325e+01 5.925836489898989612e+01 6.268102904040404155e+01
4.855808080808080973e+01 5.941619318181817988e+01 6.279924242424242209e+01
4.865273832070707272e+01 5.957745422979797922e+01 6.289847695707070585e+01
4.868347537878787534e+01 5.973524305555555713e+01 6.296693497474747403e+01
4.873330965909090651e+01 5.986162405303030454e+01 6.306853693181817988e+01
4.881849747474747403e+01 6.002793560606060908e+01 6.313857323232323182e+01
4.890648674242424221e+01 6.013849431818182012e+01 6.321188446969696884e+01
4.894949494949494806e+01 6.023184974747474740e+01 6.328046085858586167e+01
4.896085858585858830e+01 6.038620580808080973e+01 6.334580176767676818e+01
4.909670928030303116e+01 6.053689236111111427e+01 6.345939867424242209e+01
4.914023042929292728e+01 6.065869633838384090e+01 6.353006628787878896e+01
4.913537720959595845e+01 6.064437342171716949e+01 6.346902619949494806e+01
4.876740056818182012e+01 6.002750157828283051e+01 6.303113162878787534e+01
4.841406250000000000e+01 5.923066603535353636e+01 6.258009785353535648e+01
4.818418560606060908e+01 5.867929292929292728e+01 6.240104166666666430e+01
4.816800820707070585e+01 5.845541351010101039e+01 6.236197916666666430e+01
4.814145359848485128e+01 5.838308869949494806e+01 6.241165561868687206e+01
4.821784248737373701e+01 5.835357481060606233e+01 6.242617582070707272e+01
4.820821496212121104e+01 5.838182607323232531e+01 6.244337910353535648e+01
4.831932607323232531e+01 5.854596748737373701e+01 6.257437657828283051e+01
4.831356534090909349e+01 5.862259311868687206e+01 6.261233428030303116e+01
4.832232481060606233e+01 5.863798137626262275e+01 6.263308869949494806e+01
4.831597222222222143e+01 5.861316287878787534e+01 6.262799873737373701e+01
4.834260574494949481e+01 5.860996685606060908e+01 6.263206281565656752e+01
4.835913825757575779e+01 5.867558396464646364e+01 6.267495265151514872e+01
4.843517203282828376e+01 5.885389046717171624e+01 6.282043087121212466e+01
4.855472695707070585e+01 5.904936079545454675e+01 6.291394412878787534e+01
4.860653409090909349e+01 5.922869318181817988e+01 6.302146464646464352e+01
4.871539614898989612e+01 5.938222064393939092e+01 6.311107165404040131e+01
4.879123263888888573e+01 5.954596748737373701e+01 6.321310763888888573e+01
4.888016887626262275e+01 5.972218276515151558e+01 6.331403882575757791e+01
4.892416351010101039e+01 5.986166351010101039e+01 6.337286931818182012e+01
4.902698863636363313e+01 6.004071969696969546e+01 6.347017045454545325e+01
4.908901515151514872e+01 6.018986742424242209e+01 6.353835227272727337e+01
4.911916035353535648e+01 6.033664772727272663e+01 6.358585858585858830e+01
4.922316919191919027e+01 6.050015782828283051e+01 6.368166035353535648e+01
4.928720801767676818e+01 6.066031407828283051e+01 6.377568655303030454e+01
4.940242266414141170e+01 6.084086963383838054e+01 6.388963857323232531e+01
4.945186237373737725e+01 6.099936868686868507e+01 6.397790404040404155e+01
4.960602114898989612e+01 6.117514993686868507e+01 6.411454387626262985e+01
4.966378630050505194e+01 6.134986584595959869e+01 6.421287089646465063e+01
4.975327493686868507e+01 6.148291508838384090e+01 6.428989109848484418e+01
4.943367266414141170e+01 6.098023200757575779e+01 6.391094539141413833e+01
4.887208017676767469e+01 5.992416351010101039e+01 6.320383522727272663e+01
4.844491792929292728e+01 5.900205176767676818e+01 6.285779671717171624e+01
4.840751262626262275e+01 5.847585227272727337e+01 6.271606691919191690e+01
4.834576231060606233e+01 5.819677241161615910e+01 6.266915246212121104e+01
4.827110953282828376e+01 5.806040877525252597e+01 6.266583806818182012e+01
4.817814867424242209e+01 5.787290877525252597e+01 6.258850220959595845e+01
4.823046875000000000e+01 5.781411773989898961e+01 6.259236900252525260e+01
4.825544507575757791e+01 5.786229482323232531e+01 6.264449179292929415e+01
4.832717803030303116e+01 5.797632575757575779e+01 6.274652777777777857e+01
4.829352114898989612e+01 5.800090751262626299e+01 6.277331912878787534e+01
4.832630997474747403e+01 5.798713699494949481e+01 6.278858901515151558e+01
4.833285984848485128e+01 5.801562500000000000e+01 6.280224116161615910e+01
4.839930555555555713e+01 5.807623106060606233e+01 6.287326388888888573e+01
4.847782512626262275e+01 5.824297664141413833e+01 6.297924558080808310e+01
4.853862847222222143e+01 5.840179135101010388e+01 6.307050978535353636e+01
4.866508838383838054e+01 5.860353535353535648e+01 6.319775883838384090e+01
4.871358112373737725e+01 5.878207859848485128e+01 6.327813289141413833e+01
4.874384469696969546e+01 5.894618055555555713e+01 6.337152777777777857e+01
4.885499526515151558e+01 5.912251420454545325e+01 6.347241950757575779e+01
4.885834911616161946e+01 5.925402462121212466e+01 6.354142992424242209e+01
4.897664141414141170e+01 5.942550505050505194e+01 6.364520202020202078e+01
4.900812815656565391e+01 5.958577967171716949e+01 6.371488320707070585e+01
4.909903724747474740e+01 5.974234532828283051e+01 6.380374053030303116e+01
4.920363794191919027e+01 5.994290561868687206e+01 6.390849905303030454e+01
4.931632733585858830e+01 6.011683238636363313e+01 6.402181976010101039e+01
4.937113320707070585e+01 6.028811553030303116e+01 6.411639835858585457e+01
4.947084122474747403e+01 6.049656723484848442e+01 6.420395359848484418e+01
4.954166666666666430e+01 6.065609217171716949e+01 6.430744949494949481e+01
4.966276041666666430e+01 6.085467960858586167e+01 6.441923137626262985e+01
4.975134154040404155e+01 6.101396780303030454e+01 6.452264835858585457e+01
4.981455176767676818e+01 6.120265151515151558e+01 6.460085227272726627e+01
4.989058554292929415e+01 6.137085700757575779e+01 6.468809185606060908e+01
4.997533933080808310e+01 6.158218907828283051e+01 6.480078125000000000e+01
5.001996527777777857e+01 6.167763573232323182e+01 6.484872159090909349e+01
4.975501104797979934e+01 6.119440498737373701e+01 6.446097695707071296e+01
4.925110479797979934e+01 6.015924873737373701e+01 6.392108585858586167e+01
4.882303503787878896e+01 5.920608428030303116e+01 6.353562973484848442e+01
4.869436553030303116e+01 5.870588699494949481e+01 6.337997159090909349e+01
4.867874053030303116e+01 5.850781250000000000e+01 6.333372790404040131e+01
4.863237847222222143e+01 5.836991003787878896e+01 6.330062342171716949e+01
4.859205334595959869e+01 5.823993844696969546e+01 6.323678188131312794e+01
