4.596050347222222143e+01 8.683297821969696884e+01 3.484939236111111427e+01
4.598070549242424221e+01 8.687527619949494806e+01 3.484923453282828376e+01
4.603357796717171624e+01 8.686754261363635976e+01 3.485223327020202078e+01
4.608873895202020066e+01 8.683574021464646364e+01 3.488829703282828376e+01
4.614354482323232531e+01 8.681684027777777146e+01 3.494136679292929415e+01
4.603109217171716949e+01 8.681407828282827666e+01 3.496638257575757791e+01
4.605287247474747403e+01 8.678630050505050519e+01 3.495722853535353636e+01
4.604296875000000000e+01 8.679454703282827666e+01 3.497352430555555713e+01
4.610613952020202078e+01 8.681131628787878185e+01 3.499818497474747403e+01
4.609086963383838054e+01 8.686233428030303116e+01 3.500737847222222143e+01
4.608613478535353636e+01 8.687354008838383379e+01 3.500911458333333570e+01
4.609335542929292728e+01 8.691769255050505194e+01 3.501049558080808310e+01
4.609311868686868507e+01 8.694065656565656752e+01 3.500710227272727337e+01
4.608656881313131493e+01 8.695399305555555713e+01 3.499644886363636687e+01
4.612354008838384090e+01 8.699917140151515582e+01 3.499869791666666430e+01
4.614023042929292728e+01 8.703006628787878185e+01 3.498950441919191690e+01
4.612247474747474740e+01 8.706628787878787534e+01 3.498484848484848442e+01
4.613703440656565391e+01 8.709063289141414543e+01 3.497794349747474740e+01
4.614989741161615910e+01 8.713521938131313505e+01 3.496476483585858830e+01
4.619653566919191690e+01 8.720616319444444287e+01 3.500887784090909349e+01
4.623066603535353636e+01 8.727959280303029743e+01 3.499613320707070585e+01
4.625418244949494806e+01 8.733136047979797922e+01 3.498934659090909349e+01
4.622210385101010388e+01 8.734363162878787534e+01 3.495142834595959869e+01
4.613368055555555713e+01 8.725426136363635976e+01 3.482023358585858830e+01
4.604253472222222143e+01 8.710819128787878185e+01 3.473666351010101039e+01
4.607863794191919027e+01 8.705906723484848442e+01 3.476787405303030454e+01
4.607374526515151558e+01 8.704249526515151558e+01 3.482469223484848442e+01
4.607481060606060908e+01 8.704861111111111427e+01 3.485164141414141170e+01
4.568292297979797922e+01 8.658948863636364024e+01 3.468023989898989612e+01
4.568501420454545325e+01 8.656822127525252597e+01 3.469432607323232531e+01
4.569941603535353636e+01 8.656541982323231821e+01 3.469641729797979934e+01
4.564528093434343248e+01 8.653369633838383379e+01 3.470604482323232531e+01
4.565482954545454675e+01 8.653030303030303116e+01 3.471511994949494806e+01
4.563399621212121104e+01 8.652083333333332860e+01 3.473626893939393767e+01
4.563478535353535648e+01 8.650000000000000000e+01 3.472206439393939092e+01
4.566003787878787534e+01 8.652761994949494806e+01 3.474715909090909349e+01
4.568540877525252597e+01 8.655646306818181301e+01 3.477363478535353636e+01
4.570150726010101039e+01 8.656214488636364024e+01 3.479462594696969546e+01
4.569578598484848442e+01 8.659951073232323893e+01 3.481036931818182012e+01
4.569775883838384090e+01 8.663557449494949481e+01 3.481392045454545325e+01
4.571097695707070585e+01 8.664847695707071296e+01 3.478626104797979934e+01
4.572147253787878896e+01 8.665423768939393767e+01 3.478712910353535648e+01
4.577083333333333570e+01 8.672790404040404155e+01 3.479087752525252597e+01
4.577142518939393767e+01 8.677663352272726627e+01 3.479557291666666430e+01
4.580638415404040131e+01 8.680859375000000000e+01 3.479596748737373701e+01
4.578914141414141170e+01 8.684501262626262985e+01 3.478077651515151558e+01
4.583136047979797922e+01 8.690980113636364024e+01 3.480295138888888573e+01
4.585041824494949481e+01 8.696089804292928704e+01 3.479249526515151558e+01
4.584276357323232531e+01 8.700217013888888573e+01 3.478957544191919027e+01
4.589188762626262275e+01 8.706376262626262985e+01 3.477840909090909349e+01
4.588971748737373701e+01 8.711967329545454675e+01 3.476645359848485128e+01
4.590230429292929415e+01 8.715104166666667140e+01 3.476294191919191690e+01
4.588490372474747403e+01 8.714579387626262985e+01 3.468130523989898961e+01
4.574443655303030454e+01 8.697786458333332860e+01 3.454604640151514872e+01
4.571212121212121104e+01 8.692029671717172334e+01 3.451578282828283051e+01
4.575919349747474740e+01 8.691954703282827666e+01 3.457485006313131493e+01
4.574199021464646364e+01 8.692380839646465063e+01 3.461083491161615910e+01
4.581463068181817988e+01 8.694515467171717660e+01 3.463944128787878896e+01
4.579178503787878896e+01 8.693777619949494806e+01 3.463174715909090651e+01
4.578764204545454675e+01 8.694657512626262985e+01 3.463581123737373701e+01
4.578799715909090651e+01 8.694977114898989612e+01 3.465242266414141170e+01
4.576621685606060908e+01 8.693919665404040131e+01 3.463269412878787534e+01
4.572214330808080973e+01 8.691059027777777146e+01 3.459966856060606233e+01
4.574952651515151558e+01 8.689804292929292728e+01 3.462421085858586167e+01
4.575698390151514872e+01 8.691307607323231821e+01 3.464429450757575779e+01
4.579734848484848442e+01 8.694397095959595845e+01 3.465893308080808310e+01
4.575777304292929415e+01 8.696768465909090651e+01 3.468706597222222143e+01
4.578349905303030454e+01 8.698330965909090651e+01 3.468406723484848442e+01
4.576878156565656752e+01 8.702304292929292728e+01 3.467392676767676818e+01
4.583439867424242209e+01 8.703831281565656752e+01 3.466899463383838054e+01
4.581952335858586167e+01 8.709603851010101039e+01 3.468347537878787534e+01
4.586537247474747403e+01 8.712247474747475451e+01 3.466161616161615910e+01
4.587977430555555713e+01 8.716812657828282340e+01 3.467791193181817988e+01
4.587184343434343248e+01 8.720328282828282340e+01 3.466792929292929415e+01
4.583767361111111427e+01 8.719594381313130782e+01 3.464749053030303116e+01
4.589429450757575779e+01 8.723488794191919737e+01 3.464697758838384090e+01
4.588624526515151558e+01 8.725603693181818699e+01 3.462835385101010388e+01
4.591662720959595845e+01 8.730062342171717660e+01 3.463379892676767469e+01
4.595241477272727337e+01 8.739464962121212466e+01 3.464780618686868507e+01
4.596464646464646364e+01 8.741193181818181301e+01 3.462894570707070585e+01
4.587279040404040131e+01 8.733080808080808310e+01 3.450205176767676818e+01
4.580235953282828376e+01 8.721571180555555713e+01 3.439090119949494806e+01
4.578480113636363313e+01 8.717668876262625588e+01 3.439354482323232531e+01
4.577398989898989612e+01 8.716003787878787534e+01 3.445217803030303116e+01
4.578618213383838054e+01 8.716307607323231821e+01 3.447415561868687206e+01
4.581790561868687206e+01 8.716607481060606233e+01 3.450619476010101039e+01
4.579809816919191690e+01 8.715984059343433898e+01 3.450074968434343248e+01
4.579794034090909349e+01 8.714879261363635976e+01 3.452410827020202078e+01
4.580650252525252597e+01 8.713699494949494806e+01 3.452193813131312794e+01
4.580744949494949481e+01 8.712326388888888573e+01 3.450852272727272663e+01
4.580030776515151558e+01 8.710712594696970257e+01 3.449080650252525260e+01
4.580859375000000000e+01 8.709868213383838054e+01 3.450729955808080973e+01
4.582907196969696884e+01 8.711489898989898961e+01 3.453030303030303116e+01
4.580011047979797922e+01 8.717179608585858830e+01 3.454490214646464352e+01
4.579813762626262275e+01 8.721101641414141170e+01 3.456439393939393767e+01
4.588269412878787534e+01 8.723938604797979224e+01 3.458518781565656752e+01
4.584142203282828376e+01 8.724956597222222854e+01 3.458116319444444287e+01
4.588884943181817988e+01 8.727994791666667140e+01 3.457287720959595845e+01
4.585641571969696884e+01 8.729202178030303116e+01 3.456758996212121104e+01
4.590163352272727337e+01 8.735207544191919737e+01 3.456482796717171624e+01
4.588352272727272663e+01 8.736032196969696884e+01 3.454719065656565391e+01
4.590183080808080973e+01 8.737736742424242209e+01 3.456549873737373701e+01
4.591382575757575779e+01 8.741619318181818699e+01 3.455145202020202078e+01
4.586403093434343248e+01 8.746188446969696884e+01 3.453259154040404155e+01
4.591110321969696884e+01 8.751353377525252597e+01 3.454588857323232531e+01
4.592049400252525260e+01 8.756253945707071296e+01 3.453870738636363313e+01
4.594136679292929415e+01 8.760124684343433898e+01 3.453953598484848442e+01
4.595482165404040131e+01 8.766141887626262985e+01 3.454841382575757791e+01
4.598035037878787534e+01 8.769041982323231821e+01 3.453432765151514872e+01
4.592167771464646364e+01 8.762006786616161946e+01 3.443004261363636687e+01
4.579640151515151558e+01 8.749510732323231821e+01 3.427793560606060908e+01
4.580894886363636687e+01 8.742795138888888573e+01 3.424897411616161946e+01
4.582453440656565391e+01 8.743390940656566102e+01 3.430464804292929415e+01
4.581841856060606233e+01 8.739417613636364024e+01 3.433104482323232531e+01
4.576380997474747403e+01 8.736482007575757791e+01 3.434083017676767469e+01
4.576408617424242209e+01 8.733905460858585457e+01 3.436036142676767469e+01
4.578026357323232531e+01 8.728562973484848442e+01 3.435144412878787534e+01
4.578503787878787534e+01 8.726041666666667140e+01 3.439330808080808310e+01
4.581541982323232531e+01 8.727564709595959869e+01 3.440569760101010388e+01
4.579691445707070585e+01 8.725051294191919737e+01 3.442286142676767469e+01
4.579683554292929415e+01 8.723622948232323893e+01 3.443288352272727337e+01
4.581849747474747403e+01 8.723090277777777146e+01 3.445233585858586167e+01
4.580958017676767469e+01 8.722845643939393767e+01 3.448555871212121104e+01
4.583842329545454675e+01 8.725461647727273373e+01 3.448993844696969546e+01
4.577742266414141170e+01 8.728184185606060908e+01 3.448544034090909349e+01
4.584272411616161946e+01 8.729000946969696884e+01 3.451349431818182012e+01
4.582713857323232531e+01 8.731419665404040131e+01 3.451542771464646364e+01
4.588719223484848442e+01 8.734031723484848442e+01 3.454849273989898961e+01
4.585144412878787534e+01 8.736738478535353636e+01 3.452742266414141170e+01
4.589985795454545325e+01 8.737697285353534937e+01 3.453211805555555713e+01
4.588486426767676818e+01 8.741485164141414543e+01 3.453085542929292728e+01
4.591611426767676818e+01 8.743884154040404155e+01 3.452643623737373701e+01
4.588222064393939092e+01 8.749175347222222854e+01 3.451984690656565391e+01
4.591327335858586167e+01 8.751049558080808310e+01 3.452264835858586167e+01
4.594314236111111427e+01 8.753405145202020776e+01 3.452189867424242209e+01
4.594653566919191690e+01 8.757832228535353636e+01 3.450935132575757791e+01
4.592578125000000000e+01 8.761249210858585457e+01 3.450501104797979934e+01
4.594318181818182012e+01 8.766682449494949481e+01 3.449684343434343248e+01
4.595375631313131493e+01 8.768718434343433898e+01 3.449179292929292728e+01
4.596330492424242209e+01 8.774660669191919737e+01 3.449124053030303116e+01
4.599053030303030454e+01 8.782307449494949481e+01 3.447806186868687206e+01
4.604016729797979934e+01 8.786403093434343248e+01 3.447245896464646364e+01
4.598938604797979934e+01 8.779746685606060908e+01 3.436848958333333570e+01
4.585617897727272663e+01 8.764437342171717660e+01 3.421429135101010388e+01
4.580306976010101039e+01 8.757169349747475451e+01 3.417096748737373701e+01
4.585779671717171624e+01 8.753661616161616621e+01 3.420738636363636687e+01
4.589113794191919027e+01 8.754438920454545325e+01 3.426850536616161946e+01
4.586852904040404155e+01 8.754008838383838054e+01 3.427998737373737725e+01
4.585752051767676818e+01 8.748125789141414543e+01 3.427955334595959869e+01
4.584023832070707272e+01 8.742215119949494806e+01 3.428626104797979934e+01
4.584469696969696884e+01 8.740625000000000000e+01 3.432733585858586167e+01
4.584209280303030454e+01 8.740159406565656752e+01 3.434730113636363313e+01
4.578598484848485128e+01 8.737736742424242209e+01 3.435037878787878896e+01
4.581526199494949481e+01 8.736182133838383379e+01 3.436450441919191690e+01
4.583996212121212466e+01 8.736221590909090651e+01 3.439172979797979934e+01
4.582417929292929415e+01 8.735637626262625588e+01 3.438336489898989612e+01
4.582145675505050519e+01 8.738064236111111427e+01 3.443193655303030454e+01
4.585432449494949481e+01 8.738778409090909349e+01 3.444618055555555713e+01
4.585538983585858830e+01 8.741078756313130782e+01 3.445576862373737725e+01
4.587259311868687206e+01 8.742057291666667140e+01 3.446429135101010388e+01
4.586442550505050519e+01 8.745312500000000000e+01 3.445454545454545325e+01
4.589563604797979934e+01 8.746697443181818699e+01 3.445782039141413833e+01
4.589023042929292728e+01 8.748934659090909349e+01 3.445052083333333570e+01
4.593276515151514872e+01 8.752541035353534937e+01 3.445959595959595845e+01
4.593746054292929415e+01 8.755930397727273373e+01 3.446760574494949481e+01
4.594606218434343248e+01 8.759852430555555713e+01 3.446184501262626299e+01
4.599550189393939092e+01 8.762413194444444287e+01 3.446772411616161946e+01
4.596484375000000000e+01 8.765881470959595845e+01 3.447936395202020066e+01
4.597971906565656752e+01 8.769862689393939092e+01 3.447466856060606233e+01
4.601171875000000000e+01 8.775556344696970257e+01 3.448220486111111427e+01
4.601937342171716949e+01 8.778199968434343248e+01 3.447565498737373701e+01
4.600497159090909349e+01 8.784698547979797922e+01 3.446583017676767469e+01
4.598311237373737725e+01 8.788194444444444287e+01 3.445107323232323182e+01
4.601957070707070585e+01 8.790293560606060908e+01 3.444854797979797922e+01
4.603211805555555713e+01 8.795257260101010388e+01 3.443489583333333570e+01
4.606885258838384090e+01 8.800067077020202078e+01 3.444243213383838054e+01
4.605176767676767469e+01 8.803929924242424931e+01 3.442171717171716949e+01
4.597427398989898961e+01 8.795628156565656752e+01 3.429261363636363313e+01
4.589141414141413833e+01 8.780602904040404155e+01 3.413762626262626299e+01
4.588608743686868507e+01 8.774404198232323893e+01 3.412772253787878896e+01
4.589721433080808310e+01 8.773244160353534937e+01 3.415494791666666430e+01
4.591126104797979934e+01 8.773449337121212466e+01 3.419030145202020066e+01
4.588979640151514872e+01 8.773070549242424931e+01 3.420198074494949481e+01
4.588091856060606233e+01 8.766579861111111427e+01 3.420825441919191690e+01
4.586501736111111427e+01 8.764184816919191690e+01 3.421160827020202078e+01
4.588478535353535648e+01 8.764015151515151558e+01 3.424921085858586167e+01
4.581794507575757791e+01 8.762018623737374412e+01 3.426033775252525260e+01
4.583948863636363313e+01 8.761616161616161946e+01 3.425583964646464352e+01
4.584094854797979934e+01 8.760136521464646364e+01 3.426818970959595845e+01
4.587559185606060908e+01 8.760381155303029743e+01 3.428436710858586167e+01
4.587200126262626299e+01 8.763099747474747403e+01 3.432670454545454675e+01
4.593584280303030454e+01 8.763770517676768179e+01 3.433798926767676818e+01
4.590143623737373701e+01 8.766327335858585457e+01 3.437239583333333570e+01
4.594057765151514872e+01 8.767700441919191690e+01 3.436718750000000000e+01
4.589283459595959869e+01 8.769791666666667140e+01 3.436363636363636687e+01
4.593312026515151558e+01 8.770789930555555713e+01 3.436115056818182012e+01
4.595860953282828376e+01 8.774080650252524549e+01 3.438695549242424221e+01
4.597541824494949481e+01 8.776550662878787534e+01 3.439255839646464352e+01
4.595174400252525260e+01 8.781269728535353636e+01 3.438482481060606233e+01
4.597186710858586167e+01 8.782177241161616621e+01 3.437464488636363313e+01
4.598291508838384090e+01 8.787006786616161946e+01 3.438474589646464352e+01
4.600836489898989612e+01 8.788573232323231821e+01 3.438352272727272663e+01
4.602765940656565391e+01 8.793911773989898961e+01 3.441181344696969546e+01
4.605279356060606233e+01 8.800591856060606233e+01 3.440475063131312794e+01
4.605831755050505194e+01 8.803653724747475451e+01 3.442084911616161946e+01
4.610164141414141170e+01 8.806660353535353636e+01 3.438557449494949481e+01
4.608834438131312794e+01 8.810491635101010388e+01 3.437906407828283051e+01
4.610400883838384090e+01 8.813699494949494806e+01 3.438967803030303116e+01
4.611225536616161946e+01 8.819211647727273373e+01 3.436493844696969546e+01
4.612851167929292728e+01 8.823252051767676107e+01 3.434410511363636687e+01
4.612500000000000000e+01 8.825599747474747403e+01 3.435132575757575779e+01
4.611884469696969546e+01 8.826893939393939092e+01 3.430334595959595845e+01
4.601333648989898961e+01 8.815348800505050519e+01 3.412586805555555713e+01
4.593690814393939092e+01 8.805038667929292728e+01 3.405496369949494806e+01
4.594704861111111427e+01 8.803416982323231821e+01 3.406384154040404155e+01
4.599222695707070585e+01 8.805393781565656752e+01 3.411328125000000000e+01
4.596369949494949481e+01 8.805776515151515582e+01 3.415309343434343248e+01
4.596212121212121104e+01 8.802998737373737015e+01 3.415388257575757791e+01
4.595020517676767469e+01 8.800860164141414543e+01 3.415964330808080973e+01
4.596657986111111427e+01 8.800651041666667140e+01 3.418075284090909349e+01
4.597032828282828376e+01 8.798910984848484418e+01 3.418418560606060908e+01
4.595545296717171624e+01 8.797944286616161946e+01 3.419519412878787534e+01
4.594397095959595845e+01 8.796243686868686495e+01 3.418544823232323182e+01
4.596085858585858830e+01 8.795422979797979224e+01 3.419397095959595845e+01
4.596977588383838054e+01 8.795430871212121815e+01 3.421646148989898961e+01
4.600540561868687206e+01 8.799751420454545325e+01 3.423615056818182012e+01
4.598776830808080973e+01 8.799708017676768179e+01 3.424755366161615910e+01
4.601542771464646364e+01 8.802300347222222854e+01 3.425153882575757791e+01
4.604683554292929415e+01 8.802947443181818699e+01 3.426085069444444287e+01
4.604857165404040131e+01 8.805062342171717660e+01 3.425564236111111427e+01
4.603752367424242209e+01 8.807982165404040131e+01 3.425848327020202078e+01
4.605283301767676818e+01 8.809008049242424931e+01 3.427489741161615910e+01
4.606127683080808310e+01 8.812204071969696884e+01 3.426961016414141170e+01
4.608258364898989612e+01 8.818406723484848442e+01 3.427166193181817988e+01
4.608431976010101039e+01 8.821594854797979224e+01 3.427024147727272663e+01
4.609051452020202078e+01 8.823682133838383379e+01 3.426807133838384090e+01
4.612409248737373701e+01 8.826692708333332860e+01 3.427986900252525260e+01
4.615984059343434609e+01 8.831624842171717660e+01 3.427268781565656752e+01
4.616461489898989612e+01 8.836079545454545325e+01 3.426783459595959869e+01
4.616698232323232531e+01 8.840198863636364024e+01 3.426530934343434609e+01
4.617660984848485128e+01 8.842850378787878185e+01 3.428330176767676818e+01
4.619432607323232531e+01 8.846089804292928704e+01 3.427387152777777857e+01
4.621212121212121104e+01 8.848958333333332860e+01 3.427556818181817988e+01
4.621448863636363313e+01 8.853298611111111427e+01 3.425047348484848442e+01
4.618241003787878896e+01 8.850043402777777146e+01 3.418225220959595845e+01
4.602418718434343248e+01 8.834473642676768179e+01 3.401061395202020066e+01
4.601665088383838054e+01 8.828953598484848442e+01 3.397782512626262275e+01
4.604509943181817988e+01 8.829509943181818699e+01 3.401716382575757791e+01
4.603890467171716949e+01 8.828874684343433898e+01 3.406036931818182012e+01
4.606518308080808310e+01 8.830744949494949481e+01 3.410258838383838054e+01
4.606810290404040131e+01 8.832362689393939092e+01 3.411513573232323182e+01
4.609071180555555713e+01 8.831640625000000000e+01 3.413364109848485128e+01
4.607575757575757791e+01 8.830618686868686495e+01 3.412926136363636687e+01
4.606995738636363313e+01 8.828428819444444287e+01 3.412503945707070585e+01
4.603464330808080973e+01 8.825276199494949481e+01 3.410187815656565391e+01
4.603618213383838054e+01 8.824498895202020776e+01 3.411667455808080973e+01
4.604778251262626299e+01 8.823780776515151558e+01 3.412685448232323182e+01
4.608913352272727337e+01 8.825185448232323893e+01 3.416047190656565391e+01
4.608605587121212466e+01 8.827781723484848442e+01 3.416276041666666430e+01
4.612034406565656752e+01 8.830026830808080263e+01 3.419420770202020066e+01
4.610641571969696884e+01 8.832532354797979224e+01 3.420174400252525260e+01
4.609311868686868507e+01 8.834375000000000000e+01 3.421669823232323182e+01
4.613944128787878896e+01 8.834588068181818699e+01 3.419799558080808310e+01
4.612081755050505194e+01 8.836434659090909349e+01 3.420399305555555713e+01
4.612401357323232531e+01 8.838506155303029743e+01 3.420829387626262275e+01
4.615135732323232531e+01 8.840530303030303116e+01 3.419618055555555713e+01
4.614792455808080973e+01 8.843454071969696884e+01 3.419874526515151558e+01
4.615928819444444287e+01 8.845853061868686495e+01 3.420600536616161946e+01
4.617735953282828376e+01 8.849049084595959869e+01 3.420056029040404155e+01
4.618568497474747403e+01 8.852754103535353636e+01 3.418521148989898961e+01
4.618292297979797922e+01 8.856171085858585457e+01 3.419996843434343248e+01
4.621871054292929415e+01 8.860097064393939092e+01 3.420561079545454675e+01
4.622447127525252597e+01 8.861509627525252597e+01 3.420600536616161946e+01
4.622739109848485128e+01 8.865668402777777146e+01 3.418319917929292728e+01
4.622754892676767469e+01 8.868256786616161946e+01 3.417325599747474740e+01
4.621788194444444287e+01 8.869925820707071296e+01 3.412807765151514872e+01
4.609169823232323182e+01 8.853914141414141170e+01 3.395833333333333570e+01
4.601175820707070585e+01 8.844610164141414543e+01 3.386797664141413833e+01
4.606640625000000000e+01 8.841031407828282340e+01 3.389295296717171624e+01
4.606163194444444287e+01 8.838833648989898961e+01 3.395951704545454675e+01
4.606522253787878896e+01 8.839350536616161946e+01 3.399435763888888573e+01
4.608609532828283051e+01 8.838944128787878185e+01 3.401112689393939092e+01
4.606530145202020066e+01 8.836975220959595845e+01 3.401968907828283051e+01
4.604758522727272663e+01 8.834540719696970257e+01 3.403922032828283051e+01
4.605232007575757791e+01 8.834146148989898961e+01 3.404537563131312794e+01
4.607094381313131493e+01 8.832441603535353636e+01 3.405563446969696884e+01
4.606072443181817988e+01 8.829699337121212466e+01 3.405377998737373701e+01
4.610389046717171624e+01 8.829139046717172334e+01 3.407769097222222143e+01
4.608116319444444287e+01 8.828760258838383379e+01 3.409363162878787534e+01
4.609035669191919027e+01 8.830421401515151558e+01 3.411545138888888573e+01
4.609509154040404155e+01 8.830705492424242209e+01 3.413028724747474740e+01
4.608100536616161946e+01 8.829880839646465063e+01 3.413750789141413833e+01
4.611182133838384090e+01 8.830610795454545325e+01 3.414670138888888573e+01
4.610617897727272663e+01 8.833424084595959869e+01 3.416425978535353636e+01
4.609138257575757791e+01 8.833854166666667140e+01 3.414094065656565391e+01
4.608968592171716949e+01 8.834915561868686495e+01 3.413908617424242209e+01
4.611095328282828376e+01 8.837326388888888573e+01 3.415988005050505194e+01
4.612657828282828376e+01 8.841856060606060908e+01 3.417313762626262275e+01
4.616141887626262275e+01 8.844929766414141170e+01 3.418035827020202078e+01
4.618671085858586167e+01 8.848011363636364024e+01 3.419444444444444287e+01
4.619629892676767469e+01 8.851369160353534937e+01 3.420008680555555713e+01
4.621681660353535648e+01 8.855141256313130782e+01 3.418714488636363313e+01
4.619799558080808310e+01 8.858593750000000000e+01 3.417037563131312794e+01
4.622447127525252597e+01 8.861257102272726627e+01 3.418564551767676818e+01
4.623567708333333570e+01 8.864745107323231821e+01 3.417538667929292728e+01
4.627205650252525260e+01 8.868177872474747403e+01 3.416662720959595845e+01
4.625540561868687206e+01 8.870253314393939092e+01 3.415913036616161946e+01
4.625682607323232531e+01 8.875319602272726627e+01 3.416023516414141170e+01
4.624400252525252597e+01 8.876609848484848442e+01 3.411742424242424221e+01
4.612571022727272663e+01 8.865206755050505194e+01 3.394767992424242209e+01
4.605760732323232531e+01 8.850647095959595845e+01 3.379103535353535648e+01
4.603819444444444287e+01 8.846322601010101039e+01 3.382449494949494806e+01
4.602604166666666430e+01 8.844428661616161946e+01 3.389788510101010388e+01
4.607780934343434609e+01 8.844854797979797922e+01 3.395107323232323182e+01
4.607567866161615910e+01 8.842858270202020776e+01 3.396977588383838054e+01
4.606632733585858830e+01 8.839445233585858830e+01 3.396705334595959869e+01
4.605965909090909349e+01 8.835684974747475451e+01 3.399321338383838054e+01
4.607031250000000000e+01 8.834635416666667140e+01 3.402043876262626299e+01
4.607157512626262275e+01 8.833972537878787534e+01 3.404221906565656752e+01
4.609150094696969546e+01 8.831119791666667140e+01 3.406703756313131493e+01
4.606277619949494806e+01 8.829273200757575069e+01 3.406814236111111427e+01
4.606218434343434609e+01 8.829876893939393767e+01 3.409485479797979934e+01
4.607575757575757791e+01 8.828756313131313505e+01 3.411395202020202078e+01
4.610057607323232531e+01 8.829628314393939092e+01 3.413703440656565391e+01
4.610625789141413833e+01 8.832674400252524549e+01 3.416986268939393767e+01
4.612050189393939092e+01 8.833688446969696884e+01 3.416579861111111427e+01
4.611683238636363313e+01 8.834331597222222854e+01 3.416954703282828376e+01
4.612275094696969546e+01 8.837290877525252597e+01 3.417514993686868507e+01
4.612180397727272663e+01 8.839547821969696884e+01 3.418162089646464352e+01
4.616193181818182012e+01 8.841729797979797922e+01 3.418892045454545325e+01
4.615060763888888573e+01 8.842254577020202078e+01 3.418596117424242209e+01
4.614318970959595845e+01 8.843643465909090651e+01 3.417964804292929415e+01
4.616347064393939092e+01 8.845324337121212466e+01 3.418919665404040131e+01
4.616161616161615910e+01 8.849337121212121815e+01 3.418276515151514872e+01
4.614603061868687206e+01 8.851897885101010388e+01 3.418091066919191690e+01
4.618895991161615910e+01 8.856253945707071296e+01 3.418454071969696884e+01
4.621693497474747403e+01 8.859698547979797922e+01 3.418410669191919027e+01
4.623978061868687206e+01 8.862835385101010388e+01 3.417586016414141170e+01
4.625453756313131493e+01 8.867436079545454675e+01 3.418572443181817988e+01
4.625686553030303116e+01 8.871093750000000000e+01 3.417874053030303116e+01
4.625224905303030454e+01 8.875840435606060908e+01 3.416528566919191690e+01
4.624183238636363313e+01 8.880133364898989612e+01 3.413435132575757791e+01
4.626594065656565391e+01 8.882575757575757791e+01 3.414125631313131493e+01
4.623441445707070585e+01 8.874988162878787534e+01 3.404675662878787534e+01
4.607780934343434609e+01 8.860290404040404155e+01 3.385101010101010388e+01
4.607556029040404155e+01 8.850611584595959869e+01 3.383787089646464352e+01
4.606601167929292728e+01 8.850019728535353636e+01 3.390092329545454675e+01
4.609793244949494806e+01 8.850086805555555713e+01 3.395604482323232531e+01
4.608147885101010388e+01 8.847904829545454675e+01 3.398378314393939092e+01
4.609343434343434609e+01 8.843671085858585457e+01 3.400457702020202078e+01
4.608242582070707272e+01 8.839508364898989612e+01 3.401203440656565391e+01
4.608787089646464352e+01 8.836880523989898961e+01 3.404573074494949481e+01
4.609189551767676818e+01 8.836178188131313505e+01 3.407421875000000000e+01
4.611450441919191690e+01 8.833199179292928704e+01 3.407725694444444287e+01
4.603890467171716949e+01 8.829995265151515582e+01 3.407694128787878896e+01
4.604797979797979934e+01 8.827840909090909349e+01 3.409296085858586167e+01
4.606522253787878896e+01 8.828081597222222854e+01 3.412140940656565391e+01
4.608179450757575779e+01 8.828302556818181301e+01 3.414350536616161946e+01
4.608637152777777857e+01 8.829675662878787534e+01 3.417128314393939092e+01
4.614244002525252597e+01 8.832441603535353636e+01 3.419878472222222143e+01
4.611568813131312794e+01 8.833396464646465063e+01 3.421464646464646364e+01
4.611975220959595845e+01 8.833518781565656752e+01 3.422802241161615910e+01
4.613762626262626299e+01 8.836663510101010388e+01 3.424258207070707272e+01
4.619326073232323182e+01 8.840932765151515582e+01 3.424771148989898961e+01
4.618947285353535648e+01 8.841895517676768179e+01 3.424092487373737725e+01
4.620324337121212466e+01 8.843446180555555713e+01 3.424522569444444287e+01
4.618690814393939092e+01 8.845931976010101039e+01 3.424656723484848442e+01
4.622818023989898961e+01 8.850990372474747403e+01 3.426211332070707272e+01
4.623362531565656752e+01 8.853223642676768179e+01 3.426361268939393767e+01
4.627430555555555713e+01 8.857307449494949481e+01 3.426878156565656752e+01
4.626231060606060908e+01 8.860227272727273373e+01 3.425631313131312794e+01
4.630054450757575779e+01 8.866781092171717660e+01 3.429044349747474740e+01
4.627718592171716949e+01 8.870632102272726627e+01 3.422904829545454675e+01
4.629679608585858830e+01 8.872356376262625588e+01 3.424345012626262275e+01
4.629328440656565391e+01 8.874435763888888573e+01 3.423930713383838054e+01
4.627706755050505194e+01 8.874487058080808310e+01 3.423035037878787534e+01
4.624629103535353636e+01 8.872498421717172334e+01 3.415995896464646364e+01
4.611355744949494806e+01 8.856242108585858830e+01 3.397529987373737725e+01
4.610838857323232531e+01 8.844582544191919737e+01 3.394282670454545325e+01
4.608388573232323182e+01 8.840333017676768179e+01 3.397419507575757791e+01
4.609225063131312794e+01 8.837239583333332860e+01 3.402470012626262275e+01
4.610610006313131493e+01 8.837914299242424931e+01 3.406664299242424221e+01
4.610022095959595845e+01 8.831297348484848442e+01 3.409201388888888573e+01
4.605819917929292728e+01 8.827410827020202078e+01 3.409371054292929415e+01
4.605492424242424221e+01 8.823974116161616621e+01 3.412152777777777857e+01
4.609564393939393767e+01 8.823358585858585457e+01 3.416382575757575779e+01
4.604746685606060908e+01 8.822139362373737015e+01 3.417278251262626299e+01
4.604182449494949481e+01 8.817424242424242209e+01 3.418892045454545325e+01
4.604052241161615910e+01 8.814200599747475451e+01 3.420134943181817988e+01
4.603815498737373701e+01 8.813158933080808310e+01 3.422754892676767469e+01
4.603791824494949481e+01 8.813671875000000000e+01 3.424972380050505194e+01
4.605074179292929415e+01 8.814970012626262985e+01 3.427264835858586167e+01
4.607575757575757791e+01 8.818102904040404155e+01 3.429561237373737725e+01
4.610432449494949481e+01 8.818386994949494806e+01 3.429371843434343248e+01
4.608132102272727337e+01 8.819353693181818699e+01 3.429659880050505194e+01
4.609560448232323182e+01 8.821523832070707272e+01 3.430598958333333570e+01
4.610649463383838054e+01 8.824348958333332860e+01 3.431388099747474740e+01
4.613060290404040131e+01 8.827564709595959869e+01 3.433372790404040131e+01
4.617037563131312794e+01 8.831036931818181301e+01 3.433830492424242209e+01
4.616485164141413833e+01 8.834509154040404155e+01 3.434367108585858830e+01
4.616887626262626299e+01 8.836852904040404155e+01 3.434674873737373701e+01
4.616682449494949481e+01 8.840845959595959869e+01 3.434785353535353636e+01
4.620229640151514872e+01 8.843604008838383379e+01 3.434860321969696884e+01
4.623121843434343248e+01 8.849984217171717660e+01 3.431060606060606233e+01
4.623374368686868507e+01 8.854971590909090651e+01 3.433491161616161946e+01
4.624277935606060908e+01 8.856111900252524549e+01 3.434142203282828376e+01
4.628401199494949481e+01 8.859493371212121815e+01 3.434146148989898961e+01
4.629214015151514872e+01 8.862957702020202078e+01 3.432907196969696884e+01
4.627067550505050519e+01 8.863352272727273373e+01 3.430066287878787534e+01
4.615112058080808310e+01 8.848729482323231821e+01 3.411876578282828376e+01
4.606143465909090651e+01 8.837645991161616621e+01 3.404328440656565391e+01
4.607911142676767469e+01 8.832784880050505194e+01 3.409915561868687206e+01
4.607816445707070585e+01 8.831032986111111427e+01 3.414350536616161946e+01
4.613178661616161946e+01 8.828203914141414543e+01 3.419523358585858830e+01
4.611919981060606233e+01 8.827639678030303116e+01 3.423267834595959869e+01
4.609209280303030454e+01 8.825512941919191690e+01 3.426538825757575779e+01
4.610961174242424221e+01 8.824613320707071296e+01 3.426822916666666430e+01
4.610448232323232531e+01 8.822569444444444287e+01 3.426957070707070585e+01
4.606399936868687206e+01 8.817952967171717660e+01 3.428448547979797922e+01
4.607441603535353636e+01 8.812807765151515582e+01 3.428811553030303116e+01
4.608637152777777857e+01 8.812977430555555713e+01 3.431774779040404155e+01
4.607260101010101039e+01 8.811158459595959869e+01 3.434027777777777857e+01
4.609584122474747403e+01 8.810862531565656752e+01 3.436620107323232531e+01
4.610247001262626299e+01 8.813514046717172334e+01 3.438072127525252597e+01
4.611793718434343248e+01 8.815471117424242209e+01 3.440834122474747403e+01
4.613462752525252597e+01 8.817313762626262985e+01 3.442219065656565391e+01
4.612977430555555713e+01 8.818548768939393767e+01 3.441717960858586167e+01
4.614362373737373701e+01 8.820328282828282340e+01 3.441666666666666430e+01
4.611343907828283051e+01 8.821429135101010388e+01 3.442451862373737725e+01
4.615155460858586167e+01 8.823741319444444287e+01 3.442712279040404155e+01
4.613174715909090651e+01 8.824396306818181301e+01 3.441378630050505194e+01
4.616934974747474740e+01 8.827493686868686495e+01 3.441777146464646364e+01
4.615940656565656752e+01 8.829687500000000000e+01 3.442440025252525260e+01
4.619791666666666430e+01 8.833096590909090651e+01 3.443308080808080973e+01
4.618315972222222143e+01 8.838439078282827666e+01 3.440396148989898961e+01
4.619207702020202078e+01 8.842219065656566102e+01 3.442297979797979934e+01
4.621504103535353636e+01 8.844499684343433898e+01 3.441721906565656752e+01
4.624408143939393767e+01 8.847245896464646364e+01 3.443284406565656752e+01
4.623599273989898961e+01 8.847810132575757791e+01 3.439634627525252597e+01
4.613364109848485128e+01 8.835396938131313505e+01 3.425201231060606233e+01
4.603539299242424221e+01 8.819038036616161946e+01 3.415928819444444287e+01
4.599802714646464352e+01 8.810771780303029743e+01 3.418379103535353636e+01
4.601886047979797922e+01 8.807062815656566102e+01 3.425733901515151558e+01
4.606123737373737725e+01 8.805571338383838054e+01 3.432670454545454675e+01
4.604245580808080973e+01 8.805918560606060908e+01 3.436379419191919027e+01
4.604754577020202078e+01 8.803160511363635976e+01 3.437645991161615910e+01
4.608431976010101039e+01 8.802750157828282340e+01 3.441812657828283051e+01
4.605389835858586167e+01 8.800386679292928704e+01 3.442700441919191690e+01
4.602789614898989612e+01 8.797328756313130782e+01 3.442041508838384090e+01
4.601408617424242209e+01 8.791181344696970257e+01 3.442617582070707272e+01
4.599368686868687206e+01 8.786805555555555713e+01 3.445612373737373701e+01
4.601578282828283051e+01 8.785432449494949481e+01 3.448405934343434609e+01
4.604675662878787534e+01 8.786351799242424931e+01 3.452039930555555713e+01
4.605354324494949481e+01 8.787945864898989612e+01 3.453318339646464352e+01
4.605011047979797922e+01 8.789212436868686495e+01 3.453385416666666430e+01
4.604588857323232531e+01 8.791141887626262985e+01 3.454620422979797922e+01
4.605591066919191690e+01 8.792396622474747403e+01 3.455985637626262275e+01
4.607271938131312794e+01 8.793777619949494806e+01 3.455946180555555713e+01
4.609390782828283051e+01 8.794839015151515582e+01 3.455808080808080973e+01
4.605638415404040131e+01 8.795600536616161946e+01 3.453744476010101039e+01
4.607694128787878896e+01 8.798524305555555713e+01 3.455942234848485128e+01
4.609031723484848442e+01 8.801408617424242209e+01 3.455449021464646364e+01
4.608431976010101039e+01 8.803318339646465063e+01 3.456380208333333570e+01
4.613020833333333570e+01 8.806297348484848442e+01 3.457765151515151558e+01
4.611087436868687206e+01 8.809935290404040131e+01 3.455689709595959869e+01
4.613091856060606233e+01 8.816895517676768179e+01 3.453495896464646364e+01
4.611051925505050519e+01 8.819795612373737015e+01 3.456175031565656752e+01
4.615013415404040131e+01 8.821831597222222854e+01 3.454723011363636687e+01
4.609055397727272663e+01 8.812559185606060908e+01 3.444582544191919027e+01
4.595379577020202078e+01 8.791070864898989612e+01 3.429139046717171624e+01
4.590672348484848442e+01 8.777919823232323893e+01 3.429750631313131493e+01
4.591473327020202078e+01 8.766694286616161946e+01 3.436580650252525260e+01
4.590798611111111427e+01 8.764756944444444287e+01 3.445738636363636687e+01
4.592203282828283051e+01 8.760984848484848442e+01 3.450394570707070585e+01
4.594156407828283051e+01 8.755014993686869218e+01 3.450737847222222143e+01
4.589046717171716949e+01 8.748926767676768179e+01 3.455066287878787534e+01
4.589200599747474740e+01 8.745071811868686495e+01 3.458787089646464352e+01
4.590707859848485128e+01 8.740250157828282340e+01 3.462503945707070585e+01
4.589879261363636687e+01 8.731040877525252597e+01 3.463711332070707272e+01
4.588403566919191690e+01 8.724593592171717660e+01 3.465581597222222143e+01
4.584390782828283051e+01 8.722348484848484418e+01 3.468560606060606233e+01
4.586825284090909349e+01 8.720805713383838054e+01 3.472794349747474740e+01
4.585558712121212466e+01 8.721306818181818699e+01 3.475126262626262275e+01
4.590415877525252597e+01 8.721823705808080263e+01 3.479462594696969546e+01
4.593367266414141170e+01 8.722549715909090651e+01 3.480993529040404155e+01
4.593181818181817988e+01 8.723690025252524549e+01 3.482402146464646364e+01
4.593296243686868507e+01 8.723267834595959869e+01 3.481680082070707272e+01
4.592325599747474740e+01 8.725169665404040131e+01 3.483597695707070585e+01
4.591954703282828376e+01 8.728460385101010388e+01 3.481538036616161946e+01
4.594330018939393767e+01 8.730172821969696884e+01 3.480835700757575779e+01
4.592862215909090651e+01 8.731356534090909349e+01 3.481593276515151558e+01
4.596713226010101039e+01 8.733992266414141170e+01 3.482634943181817988e+01
4.590041035353535648e+01 8.737200126262625588e+01 3.483285984848485128e+01
4.598307291666666430e+01 8.741347064393939092e+01 3.484039614898989612e+01
4.601120580808080973e+01 8.745375631313130782e+01 3.487294823232323182e+01
4.599262152777777857e+01 8.749041193181818699e+01 3.485515309343434609e+01
4.598796559343434609e+01 8.753799715909090651e+01 3.479951862373737725e+01
4.602331912878787534e+01 8.759970801767676107e+01 3.481972064393939092e+01
4.599838226010101039e+01 8.760191761363635976e+01 3.480425347222222143e+01
4.592937184343434609e+01 8.742621527777777146e+01 3.465790719696969546e+01
4.581581439393939092e+01 8.723642676767676107e+01 3.456171085858586167e+01
4.575516887626262275e+01 8.705441130050505194e+01 3.462038352272727337e+01
4.576511205808080973e+01 8.698496685606060908e+01 3.470608428030303116e+01
4.578267045454545325e+01 8.692582070707071296e+01 3.477872474747474740e+01
4.579296875000000000e+01 8.684694602272726627e+01 3.482200915404040131e+01
4.575872001262626299e+01 8.676140309343433898e+01 3.485610006313131493e+01
4.572478693181817988e+01 8.668406723484848442e+01 3.488135258838384090e+01
4.572202493686868507e+01 8.663711332070707272e+01 3.490147569444444287e+01
4.571417297979797922e+01 8.661268939393939092e+01 3.493355429292929415e+01
4.569740372474747403e+01 8.653484059343433898e+01 3.495987215909090651e+01
4.571961805555555713e+01 8.648887310606060908e+01 3.499581755050505194e+01
4.573934659090909349e+01 8.647924558080808310e+01 3.503448547979797922e+01
4.573315183080808310e+01 8.644479955808080263e+01 3.505954071969696884e+01
4.567459753787878896e+01 8.641702178030303116e+01 3.508605587121212466e+01
4.573098169191919027e+01 8.642684659090909349e+01 3.512081755050505194e+01
4.570316445707070585e+01 8.644622001262625588e+01 3.514729324494949481e+01
4.572900883838384090e+01 8.647032828282827666e+01 3.515056818181817988e+01
4.573232323232323182e+01 8.647522095959595845e+01 3.514804292929292728e+01
4.574230587121212466e+01 8.648804450757575069e+01 3.514318970959595845e+01
4.573433554292929415e+01 8.649222695707071296e+01 3.514610953282828376e+01
4.576235006313131493e+01 8.651455965909090651e+01 3.516907354797979934e+01
4.575793087121212466e+01 8.655228061868686495e+01 3.516686395202020066e+01
4.578448547979797922e+01 8.656052714646465063e+01 3.516769255050505194e+01
4.579450757575757791e+01 8.659674873737374412e+01 3.515309343434343248e+01
4.580839646464646364e+01 8.664393939393939092e+01 3.516887626262626299e+01
4.582165404040404155e+01 8.669539141414141170e+01 3.517534722222222143e+01
4.583976483585858830e+01 8.675769412878787534e+01 3.516899463383838054e+01
4.587263257575757791e+01 8.683854166666667140e+01 3.513083964646464352e+01
4.588486426767676818e+01 8.689149305555555713e+01 3.515885416666666430e+01
4.589843750000000000e+01 8.694389204545454675e+01 3.516516729797979934e+01
4.588273358585858830e+01 8.696417297979797922e+01 3.512342171717171624e+01
4.581178977272727337e+01 8.679253472222222854e+01 3.496125315656565391e+01
4.565297506313131493e+01 8.656885258838383379e+01 3.489255839646464352e+01
4.565455334595959869e+01 8.641118213383838054e+01 3.495789930555555713e+01
4.569089330808080973e+01 8.632425820707071296e+01 3.503764204545454675e+01
4.566276041666666430e+01 8.626187657828282340e+01 3.512062026515151558e+01
4.562791982323232531e+01 8.620209911616161946e+01 3.516422032828283051e+01
4.561994949494949481e+01 8.614946338383838054e+01 3.521243686868687206e+01
4.560606060606060908e+01 8.608854166666667140e+01 3.522758838383838054e+01
4.561272885101010388e+01 8.603207859848484418e+01 3.527860637626262275e+01
4.560172032828283051e+01 8.599834280303029743e+01 3.531541982323232531e+01
4.560175978535353636e+01 8.594061710858585457e+01 3.534039614898989612e+01
4.560152304292929415e+01 8.587519728535353636e+01 3.536414930555555713e+01
4.556545928030303116e+01 8.585538983585858830e+01 3.538095801767676818e+01
4.557725694444444287e+01 8.584982638888888573e+01 3.542005997474747403e+01
4.561841066919191690e+01 8.586067708333332860e+01 3.544590435606060908e+01
4.561667455808080973e+01 8.585499526515151558e+01 3.547020991161615910e+01
4.562697285353535648e+01 8.587760416666667140e+01 3.548445391414141170e+01
4.564172979797979934e+01 8.591919191919191690e+01 3.551041666666666430e+01
4.568347537878787534e+01 8.594689078282827666e+01 3.550370896464646364e+01
4.567889835858586167e+01 8.596772411616161946e+01 3.551160037878787534e+01
4.570087594696969546e+01 8.600816761363635976e+01 3.552221433080808310e+01
4.569416824494949481e+01 8.601661142676768179e+01 3.551661142676767469e+01
4.568568497474747403e+01 8.605658143939393767e+01 3.550639204545454675e+01
4.571511994949494806e+01 8.609722222222222854e+01 3.551041666666666430e+01
4.571792140151514872e+01 8.612732796717172334e+01 3.550958806818182012e+01
4.572731218434343248e+01 8.619716698232323893e+01 3.551803188131312794e+01
4.573480902777777857e+01 8.622628630050505194e+01 3.549585700757575779e+01
4.575019728535353636e+01 8.630322758838383379e+01 3.547305082070707272e+01
4.580523989898989612e+01 8.631944444444444287e+01 3.545486111111111427e+01
4.579458648989898961e+01 8.639401830808080263e+01 3.546567234848485128e+01
4.578180239898989612e+01 8.646283143939393767e+01 3.546393623737373701e+01
4.583791035353535648e+01 8.651609848484848442e+01 3.545596590909090651e+01
4.578176294191919027e+01 8.646705334595959869e+01 3.536746369949494806e+01
4.565202809343434609e+01 8.625335385101010388e+01 3.523394097222222143e+01
4.558751578282828376e+01 8.607047032828282340e+01 3.525055239898989612e+01
4.560483743686868507e+01 8.597431344696970257e+01 3.533605587121212466e+01
4.560116792929292728e+01 8.593529040404040131e+01 3.540041035353535648e+01
4.560412720959595845e+01 8.590731534090909349e+01 3.544945549242424221e+01
4.563573232323232531e+01 8.588557449494949481e+01 3.546448863636363313e+01
4.563253630050505194e+01 8.584071180555555713e+01 3.550153882575757791e+01
4.561237373737373701e+01 8.583727904040404155e+01 3.551830808080808310e+01
4.564255839646464352e+01 8.579375789141414543e+01 3.553144728535353636e+01
4.556127683080808310e+01 8.572857481060606233e+01 3.553397253787878896e+01
4.554596748737373701e+01 8.567712279040404155e+01 3.554896622474747403e+01
4.559536773989898961e+01 8.565013415404040131e+01 3.557642834595959869e+01
4.559513099747474740e+01 8.567641256313130782e+01 3.561328125000000000e+01
4.560578440656565391e+01 8.568675031565656752e+01 3.565297506313131493e+01
4.563032670454545325e+01 8.572013099747475451e+01 3.568761837121212466e+01
4.563762626262626299e+01 8.572790404040404155e+01 3.567755681818182012e+01
4.562547348484848442e+01 8.575031565656566102e+01 3.569444444444444287e+01
4.567645202020202078e+01 8.579087752525252597e+01 3.570202020202020066e+01
4.567826704545454675e+01 8.582015467171717660e+01 3.570446654040404155e+01
4.565676294191919027e+01 8.583463541666667140e+01 3.570490056818182012e+01
4.566706123737373701e+01 8.586702967171717660e+01 3.569704861111111427e+01
4.570016571969696884e+01 8.587140940656566102e+01 3.571042455808080973e+01
4.569681186868687206e+01 8.589993686868686495e+01 3.569223484848485128e+01
4.570935921717171624e+01 8.594452335858585457e+01 3.570020517676767469e+01
4.574767203282828376e+01 8.598899147727273373e+01 3.566781092171716949e+01
4.573113952020202078e+01 8.605389835858585457e+01 3.564638573232323182e+01
4.571373895202020066e+01 8.609883996212121815e+01 3.565486900252525260e+01
4.576085069444444287e+01 8.616552241161616621e+01 3.567578125000000000e+01
4.575011837121212466e+01 8.619330018939393767e+01 3.566804766414141170e+01
4.578728693181817988e+01 8.622399779040404155e+01 3.565344854797979934e+01
4.572881155303030454e+01 8.612196180555555713e+01 3.551021938131312794e+01
4.561339962121212466e+01 8.592637310606060908e+01 3.542321654040404155e+01
4.556352588383838054e+01 8.579111426767676107e+01 3.545367739898989612e+01
4.558428030303030454e+01 8.572127525252524549e+01 3.553851010101010388e+01
4.562200126262626299e+01 8.569854797979797922e+01 3.558349116161615910e+01
4.563640309343434609e+01 8.569479955808080263e+01 3.563214172979797922e+01
4.559106691919191690e+01 8.568750000000000000e+01 3.565041035353535648e+01
4.558637152777777857e+01 8.566654829545454675e+01 3.566765309343434609e+01
4.558491161616161946e+01 8.568213383838383379e+01 3.569949494949494806e+01
4.559367108585858830e+01 8.564512310606060908e+01 3.568631628787878896e+01
4.555926452020202078e+01 8.557062815656566102e+01 3.567826704545454675e+01
4.552979008838384090e+01 8.554304766414141170e+01 3.569014362373737725e+01
4.557623106060606233e+01 8.552067550505050519e+01 3.572001262626262275e+01
4.562050189393939092e+01 8.551870265151515582e+01 3.574755366161615910e+01
4.561130839646464352e+01 8.553428819444444287e+01 3.577529198232323182e+01
4.564484690656565391e+01 8.557240372474747403e+01 3.580299084595959869e+01
4.561379419191919027e+01 8.560827020202020776e+01 3.579876893939393767e+01
4.562661773989898961e+01 8.563703440656566102e+01 3.579423137626262275e+01
4.562235637626262275e+01 8.566449652777777146e+01 3.580859375000000000e+01
4.562515782828283051e+01 8.570375631313130782e+01 3.580334595959595845e+01
4.565786773989898961e+01 8.573299400252524549e+01 3.581348642676767469e+01
4.564524147727272663e+01 8.575698390151515582e+01 3.581506470959595845e+01
4.568367266414141170e+01 8.578073705808080263e+01 3.580299084595959869e+01
4.566544349747474740e+01 8.581664299242424931e+01 3.579738794191919027e+01
4.570714962121212466e+01 8.590759154040404155e+01 3.581983901515151558e+01
4.570987215909090651e+01 8.594882417929292728e+01 3.581340751262626299e+01
4.572163036616161946e+01 8.599277935606060908e+01 3.576203440656565391e+01
4.578148674242424221e+01 8.604363952020202078e+01 3.577249053030303116e+01
4.576613794191919027e+01 8.609284248737374412e+01 3.576913667929292728e+01
4.571267361111111427e+01 8.601728219696970257e+01 3.567400568181817988e+01
4.554797979797979934e+01 8.577825126262625588e+01 3.550852272727272663e+01
4.550224905303030454e+01 8.561604324494949481e+01 3.549798768939393767e+01
4.553251262626262275e+01 8.551499368686869218e+01 3.558933080808080973e+01
4.549771148989898961e+01 8.544452335858585457e+01 3.568363320707070585e+01
4.551653251262626299e+01 8.537417140151515582e+01 3.569740372474747403e+01
4.547356376262626299e+01 8.534398674242424931e+01 3.573208648989898961e+01
4.544910037878787534e+01 8.530058396464646364e+01 3.575481376262626299e+01
4.549711963383838054e+01 8.526258680555555713e+01 3.579146938131312794e+01
4.548271780303030454e+01 8.524202967171717660e+01 3.581920770202020066e+01
4.548816287878787534e+01 8.519270833333332860e+01 3.583822601010101039e+01
4.547443181818182012e+01 8.514977904040404155e+01 3.586947601010101039e+01
4.549060921717171624e+01 8.512018623737374412e+01 3.588975694444444287e+01
4.544590435606060908e+01 8.510467960858585457e+01 3.592191445707070585e+01
4.548323074494949481e+01 8.509923453282827666e+01 3.596429135101010388e+01
4.551889993686868507e+01 8.513190498737374412e+01 3.599017518939393767e+01
4.551033775252525260e+01 8.515411931818181301e+01 3.599281881313131493e+01
4.549124053030303116e+01 8.516658775252524549e+01 3.601333648989898961e+01
4.551002209595959869e+01 8.520115214646465063e+01 3.601081123737373701e+01
4.553424873737373701e+01 8.521969696969696884e+01 3.597869318181817988e+01
4.554801925505050519e+01 8.523788667929292728e+01 3.599467329545454675e+01
4.553633996212121104e+01 8.526992582070707272e+01 3.598741319444444287e+01
4.557031250000000000e+01 8.530042613636364024e+01 3.598255997474747403e+01
4.556652462121212466e+01 8.534319760101010388e+01 3.598603219696969546e+01
4.555709438131312794e+01 8.537496054292928704e+01 3.597092013888888573e+01
4.555685763888888573e+01 8.542507102272726627e+01 3.596026672979797922e+01
4.559651199494949481e+01 8.547466856060606233e+01 3.596977588383838054e+01
4.564417613636363313e+01 8.557110164141414543e+01 3.597861426767676818e+01
4.561789772727272663e+01 8.565198863636364024e+01 3.593797348484848442e+01
4.568947285353535648e+01 8.570446654040404155e+01 3.596740845959595845e+01
4.565905145202020066e+01 8.571429135101010388e+01 3.591899463383838054e+01
4.553357796717171624e+01 8.552900094696970257e+01 3.572644412878787534e+01
4.545134943181817988e+01 8.529825599747475451e+01 3.568146306818182012e+01
4.537054135101010388e+01 8.512795928030303116e+01 3.574443655303030454e+01
4.539579387626262275e+01 8.504857165404040131e+01 3.586612215909090651e+01
4.540550031565656752e+01 8.500082859848484418e+01 3.593091066919191690e+01
4.538869160353535648e+01 8.492783301767676107e+01 3.596713226010101039e+01
4.534887941919191690e+01 8.485503472222222854e+01 3.598224431818182012e+01
4.535953282828283051e+01 8.480208333333332860e+01 3.604150883838384090e+01
4.537776199494949481e+01 8.475875946969696884e+01 3.607094381313131493e+01
4.531719539141413833e+01 8.468225220959595845e+01 3.609907670454545325e+01
4.531467013888888573e+01 8.464090119949494806e+01 3.609592013888888573e+01
4.535755997474747403e+01 8.459035669191919737e+01 3.611308396464646364e+01
4.534118529040404155e+01 8.457161458333332860e+01 3.615668402777777857e+01
4.535097064393939092e+01 8.455046559343433898e+01 3.620040246212121104e+01
4.533940972222222143e+01 8.455610795454545325e+01 3.622845643939393767e+01
4.536576704545454675e+01 8.460424558080808310e+01 3.625923295454545325e+01
4.538091856060606233e+01 8.463186553030303116e+01 3.626396780303030454e+01
4.542941130050505194e+01 8.466220801767676107e+01 3.627521306818182012e+01
4.545056029040404155e+01 8.470308554292928704e+01 3.626684816919191690e+01
4.541765309343434609e+01 8.472352430555555713e+01 3.626282354797979934e+01
4.544827178030303116e+01 8.476171875000000000e+01 3.625019728535353636e+01
4.543848642676767469e+01 8.477702809343433898e+01 3.625840435606060908e+01
4.545186237373737725e+01 8.482623106060606233e+01 3.625426136363636687e+01
4.544977114898989612e+01 8.483108428030303116e+01 3.623023200757575779e+01
4.541236584595959869e+01 8.485965119949494806e+01 3.623259943181817988e+01
4.544637784090909349e+01 8.492080965909090651e+01 3.621531723484848442e+01
4.546681660353535648e+01 8.497170928030303116e+01 3.620845170454545325e+01
4.548780776515151558e+01 8.504415246212121815e+01 3.620592645202020066e+01
4.549715909090909349e+01 8.510574494949494806e+01 3.616051136363636687e+01
4.551329703282828376e+01 8.516039299242424931e+01 3.618059501262626299e+01
4.553259154040404155e+01 8.519531250000000000e+01 3.615033143939393767e+01
4.551534880050505194e+01 8.515644728535353636e+01 3.607611268939393767e+01
4.535108901515151558e+01 8.491500946969696884e+01 3.591832386363636687e+01
4.528239425505050519e+01 8.472399779040404155e+01 3.593753945707070585e+01
4.528602430555555713e+01 8.463340435606060908e+01 3.601045612373737725e+01
4.529316603535353636e+01 8.455926452020202078e+01 3.610440340909090651e+01
4.531143465909090651e+01 8.448883364898989612e+01 3.616465435606060908e+01
4.526893939393939092e+01 8.441966540404040131e+01 3.618071338383838054e+01
4.526929450757575779e+01 8.435641571969696884e+01 3.621657986111111427e+01
4.525244633838384090e+01 8.433830492424242209e+01 3.625860164141413833e+01
4.525449810606060908e+01 8.430247790404040131e+01 3.628259154040404155e+01
4.524948705808080973e+01 8.426448074494949481e+01 3.629872948232323182e+01
4.522683869949494806e+01 8.419401041666667140e+01 3.631127683080808310e+01
4.522305082070707272e+01 8.416875789141414543e+01 3.634726167929292728e+01
4.525512941919191690e+01 8.416074810606060908e+01 3.637381628787878896e+01
4.524913194444444287e+01 8.416627209595959869e+01 3.639559659090909349e+01
4.525627367424242209e+01 8.418162089646465063e+01 3.642294034090909349e+01
4.529115372474747403e+01 8.421476483585858830e+01 3.642657039141413833e+01
4.527880366161615910e+01 8.425071022727273373e+01 3.643899936868687206e+01
4.534457859848485128e+01 8.431427556818181301e+01 3.648993844696969546e+01
4.533909406565656752e+01 8.434572285353534937e+01 3.647735164141413833e+01
4.536320233585858830e+01 8.437835385101010388e+01 3.647936395202020066e+01
4.535081281565656752e+01 8.441946811868686495e+01 3.647597064393939092e+01
4.535321969696969546e+01 8.445738636363635976e+01 3.646212121212121104e+01
4.540688131313131493e+01 8.448705808080808310e+01 3.647238005050505194e+01
4.539614898989898961e+01 8.454466540404040131e+01 3.646385732323232531e+01
4.541161616161615910e+01 8.460211489898989612e+01 3.646875000000000000e+01
4.543272569444444287e+01 8.467657039141414543e+01 3.646239741161615910e+01
4.544732481060606233e+01 8.474751420454545325e+01 3.645332228535353636e+01
4.542266414141413833e+01 8.481297348484848442e+01 3.640593434343434609e+01
4.550130208333333570e+01 8.485783617424242209e+01 3.643406723484848442e+01
4.552509469696969546e+01 8.492203282828282340e+01 3.642960858585858830e+01
4.548958333333333570e+01 8.494255050505050519e+01 3.639062500000000000e+01
4.535783617424242209e+01 8.478334122474747403e+01 3.622273516414141170e+01
4.526207386363636687e+01 8.460077335858585457e+01 3.616627209595959869e+01
4.527233270202020066e+01 8.444041982323231821e+01 3.620904356060606233e+01
4.525007891414141170e+01 8.438281250000000000e+01 3.630421401515151558e+01
4.529446811868687206e+01 8.434702493686869218e+01 3.635365372474747403e+01
4.531119791666666430e+01 8.430093907828282340e+01 3.639137468434343248e+01
4.528965435606060908e+01 8.428176294191919737e+01 3.640234375000000000e+01
4.526361268939393767e+01 8.426235006313130782e+01 3.643454071969696884e+01
4.527406881313131493e+01 8.424818497474747403e+01 3.645494002525252597e+01
4.528057922979797922e+01 8.421760574494949481e+01 3.646192392676767469e+01
4.526949179292929415e+01 8.417069128787878185e+01 3.647072285353535648e+01
4.523386205808080973e+01 8.414058554292928704e+01 3.647060448232323182e+01
4.527296401515151558e+01 8.413565340909090651e+01 3.650686553030303116e+01
4.526033775252525260e+01 8.413439078282827666e+01 3.653290719696969546e+01
4.526641414141413833e+01 8.415672348484848442e+01 3.656739267676767469e+01
4.527493686868687206e+01 8.418876262626262985e+01 3.658080808080808310e+01
4.533341224747474740e+01 8.423429608585858830e+01 3.659351325757575779e+01
4.531388099747474740e+01 8.426732165404040131e+01 3.659860321969696884e+01
4.531407828282828376e+01 8.429655934343433898e+01 3.659832702020202078e+01
4.531545928030303116e+01 8.432240372474747403e+01 3.659828756313131493e+01
4.537133049242424221e+01 8.436612215909090651e+01 3.661375473484848442e+01
4.534599905303030454e+01 8.441812657828282340e+01 3.660010258838384090e+01
4.538237847222222143e+01 8.444992897727273373e+01 3.659465751262626299e+01
4.540167297979797922e+01 8.449479166666667140e+01 3.660779671717171624e+01
4.543379103535353636e+01 8.455295138888888573e+01 3.659256628787878896e+01
4.542743844696969546e+01 8.460262784090909349e+01 3.658700284090909349e+01
4.544839015151514872e+01 8.464441287878787534e+01 3.658238636363636687e+01
4.542692550505050519e+01 8.472348484848484418e+01 3.651436237373737725e+01
4.546985479797979934e+01 8.477493686868686495e+01 3.653708964646464352e+01
4.543237058080808310e+01 8.474187184343433898e+01 3.648003472222222143e+01
4.534248737373737725e+01 8.459659090909090651e+01 3.633428030303030454e+01
4.526290246212121104e+01 8.442151988636364024e+01 3.630772569444444287e+01
4.527110953282828376e+01 8.434023832070707272e+01 3.637164614898989612e+01
4.526621685606060908e+01 8.427758049242424931e+01 3.642704387626262275e+01
4.529561237373737725e+01 8.432181186868686495e+01 3.651136363636363313e+01
4.533755523989898961e+01 8.431593276515151558e+01 3.654604640151514872e+01
4.535152304292929415e+01 8.431695864898989612e+01 3.657437657828283051e+01
4.533360953282828376e+01 8.428594539141414543e+01 3.657556029040404155e+01
4.530902777777777857e+01 8.427335858585858830e+01 3.656676136363636687e+01
4.530235953282828376e+01 8.424412089646465063e+01 3.656340751262626299e+01
4.530054450757575779e+01 8.421547506313130782e+01 3.655022885101010388e+01
4.529174558080808310e+01 8.418363320707071296e+01 3.656904987373737725e+01
4.530871212121212466e+01 8.419207702020202078e+01 3.659816919191919027e+01
4.531538036616161946e+01 8.419874526515151558e+01 3.662598642676767469e+01
4.533716066919191690e+01 8.423046875000000000e+01 3.664760890151514872e+01
4.533258364898989612e+01 8.427276672979797922e+01 3.664934501262626299e+01
4.533735795454545325e+01 8.429916351010101039e+01 3.665080492424242209e+01
4.534449968434343248e+01 8.432871685606060908e+01 3.666489109848485128e+01
4.536051925505050519e+01 8.435815183080808310e+01 3.666970486111111427e+01
4.537827493686868507e+01 8.440589488636364024e+01 3.666094539141413833e+01
4.535984848484848442e+01 8.443497474747475451e+01 3.664646464646464352e+01
4.540672348484848442e+01 8.447806186868686495e+01 3.665183080808080973e+01
4.543177872474747403e+01 8.453973327020202078e+01 3.664169034090909349e+01
4.542601799242424221e+01 8.457027304292928704e+01 3.662156723484848442e+01
4.546338383838384090e+01 8.462279040404040131e+01 3.662326388888888573e+01
4.548177083333333570e+01 8.468126578282827666e+01 3.662208017676767469e+01
4.548027146464646364e+01 8.474700126262625588e+01 3.660116792929292728e+01
4.549337121212121104e+01 8.475915404040404155e+01 3.654214015151514872e+01
4.532970328282828376e+01 8.461916035353534937e+01 3.633759469696969546e+01
4.525213068181817988e+01 8.443079229797979224e+01 3.632173295454545325e+01
4.523658459595959869e+01 8.434674873737374412e+01 3.640767045454545325e+01
4.527233270202020066e+01 8.428653724747475451e+01 3.647798295454545325e+01
4.529411300505050519e+01 8.426822916666667140e+01 3.652675189393939092e+01
4.530516098484848442e+01 8.424818497474747403e+01 3.656463068181817988e+01
4.528109217171716949e+01 8.422427398989898961e+01 3.659264520202020066e+01
4.532579703282828376e+01 8.421074021464646364e+01 3.661115056818182012e+01
4.529316603535353636e+01 8.421062184343433898e+01 3.662949810606060908e+01
4.525627367424242209e+01 8.419898200757575069e+01 3.662543402777777857e+01
4.530409564393939092e+01 8.415952493686869218e+01 3.662527619949494806e+01
4.528673453282828376e+01 8.413032670454545325e+01 3.664358428030303116e+01
4.527726483585858830e+01 8.412543402777777146e+01 3.666646938131312794e+01
4.530918560606060908e+01 8.413683712121212466e+01 3.668939393939393767e+01
4.530823863636363313e+01 8.417866161616161946e+01 3.669712752525252597e+01
4.533502998737373701e+01 8.421287089646465063e+01 3.672092013888888573e+01
4.534520991161615910e+01 8.424309501262625588e+01 3.672967960858586167e+01
4.533992266414141170e+01 8.427726483585858830e+01 3.674759311868687206e+01
4.535045770202020066e+01 8.430689709595959869e+01 3.673634785353535648e+01
4.538348327020202078e+01 8.435523200757575069e+01 3.672060448232323182e+01
4.538415404040404155e+01 8.438825757575757791e+01 3.669744318181817988e+01
4.538837594696969546e+01 8.443493529040404155e+01 3.669582544191919027e+01
4.538671875000000000e+01 8.449277935606060908e+01 3.670979324494949481e+01
4.541500946969696884e+01 8.453495896464646364e+01 3.671109532828283051e+01
4.542905618686868507e+01 8.459098800505050519e+01 3.669184027777777857e+01
4.549798768939393767e+01 8.463592960858585457e+01 3.668706597222222143e+01
4.550398516414141170e+01 8.469874526515151558e+01 3.669385258838384090e+01
4.549972380050505194e+01 8.477481849747475451e+01 3.668943339646464352e+01
4.551645359848485128e+01 8.477907986111111427e+01 3.662425031565656752e+01
4.535578440656565391e+01 8.465076546717172334e+01 3.645979324494949481e+01
4.525071022727272663e+01 8.443805239898989612e+01 3.635787563131312794e+01
4.522533933080808310e+01 8.428105271464646364e+01 3.639532039141413833e+01
4.527402935606060908e+01 8.423962279040404155e+01 3.644874526515151558e+01
4.524139835858586167e+01 8.419767992424242209e+01 3.652690972222222143e+01
4.523433554292929415e+01 8.416599589646465063e+01 3.653799715909090651e+01
4.522328756313131493e+01 8.412795928030303116e+01 3.656687973484848442e+01
4.526404671717171624e+01 8.410684974747475451e+01 3.660779671717171624e+01
4.526570391414141170e+01 8.409161931818181301e+01 3.663344381313131493e+01
4.526834753787878896e+01 8.407721748737374412e+01 3.666197127525252597e+01
4.524546243686868507e+01 8.404170612373737015e+01 3.666702178030303116e+01
4.525548453282828376e+01 8.403436710858585457e+01 3.666710069444444287e+01
4.523741319444444287e+01 8.400335385101010388e+01 3.670474273989898961e+01
4.527675189393939092e+01 8.403227588383838054e+01 3.674818497474747403e+01
4.528665561868687206e+01 8.405512152777777146e+01 3.677024147727272663e+01
4.528815498737373701e+01 8.407997948232323893e+01 3.679036458333333570e+01
4.533937026515151558e+01 8.412519728535353636e+01 3.679691445707070585e+01
4.533727904040404155e+01 8.415625000000000000e+01 3.679214015151514872e+01
4.531017203282828376e+01 8.420379577020202078e+01 3.679801925505050519e+01
4.531628787878787534e+01 8.423910984848484418e+01 3.678077651515151558e+01
4.533293876262626299e+01 8.428290719696970257e+01 3.677170138888888573e+01
4.537326388888888573e+01 8.429955808080808310e+01 3.677588383838384090e+01
4.537428977272727337e+01 8.435692866161616621e+01 3.677675189393939092e+01
4.538419349747474740e+01 8.439666193181818699e+01 3.674735637626262275e+01
4.539397885101010388e+01 8.443327809343433898e+01 3.674514678030303116e+01
4.540463226010101039e+01 8.448686079545454675e+01 3.674775094696969546e+01
4.543205492424242209e+01 8.458025568181818699e+01 3.674629103535353636e+01
4.546894728535353636e+01 8.463450915404040131e+01 3.674088541666666430e+01
4.549348958333333570e+01 8.469109059343433898e+01 3.672455018939393767e+01
4.549092487373737725e+01 8.477296401515151558e+01 3.672056502525252597e+01
4.547853535353535648e+01 8.476373106060606233e+01 3.662941919191919027e+01
4.535432449494949481e+01 8.457054924242424931e+01 3.644902146464646364e+01
4.525895675505050519e+01 8.444740372474747403e+01 3.641031407828283051e+01
4.525477430555555713e+01 8.430433238636364024e+01 3.646089804292929415e+01
4.524270044191919027e+01 8.430977746212121815e+01 3.652836963383838054e+01
4.527623895202020066e+01 8.427797506313130782e+01 3.658952809343434609e+01
4.530133364898989612e+01 8.426108743686869218e+01 3.661841066919191690e+01
4.529438920454545325e+01 8.421279198232323893e+01 3.665060763888888573e+01
4.525832544191919027e+01 8.419266887626262985e+01 3.667862215909090651e+01
4.527979008838384090e+01 8.417372948232323893e+01 3.669756155303030454e+01
4.532035195707070585e+01 8.413932291666667140e+01 3.670292771464646364e+01
4.527327967171716949e+01 8.412934027777777146e+01 3.669957386363636687e+01
4.527327967171716949e+01 8.411387310606060908e+01 3.671961805555555713e+01
4.526491477272727337e+01 8.412744633838383379e+01 3.673508522727272663e+01
4.527864583333333570e+01 8.413218118686869218e+01 3.675907512626262275e+01
4.531699810606060908e+01 8.416327335858585457e+01 3.677864583333333570e+01
4.535775726010101039e+01 8.419566761363635976e+01 3.679778251262626299e+01
4.534043560606060908e+01 8.423106060606060908e+01 3.681691919191919027e+01
4.534998421717171624e+01 8.428038194444444287e+01 3.682615214646464352e+01
4.539050662878787534e+01 8.433621369949494806e+01 3.680906723484848442e+01
4.537784090909090651e+01 8.438273358585858830e+01 3.680397727272727337e+01
4.541911300505050519e+01 8.440096275252524549e+01 3.680752840909090651e+01
4.541788983585858830e+01 8.442862215909090651e+01 3.681324968434343248e+01
4.543260732323232531e+01 8.450520833333332860e+01 3.681991792929292728e+01
4.544282670454545325e+01 8.458045296717172334e+01 3.678326231060606233e+01
4.546401515151514872e+01 8.463147095959595845e+01 3.678345959595959869e+01
4.550295928030303116e+01 8.468367266414141170e+01 3.679809816919191690e+01
4.553910195707070585e+01 8.477174084595959869e+01 3.679683554292929415e+01
4.551625631313131493e+01 8.483222853535353636e+01 3.678235479797979934e+01
4.551795296717171624e+01 8.487069917929292728e+01 3.674096433080808310e+01
4.551546717171716949e+01 8.493607954545454675e+01 3.673705808080808310e+01
4.556751104797979934e+01 8.500390625000000000e+01 3.670576862373737725e+01
4.549333175505050519e+01 8.494661458333332860e+01 3.660223327020202078e+01
4.539958175505050519e+01 8.476526988636364024e+01 3.646665877525252597e+01
4.536856849747474740e+01 8.462314551767676107e+01 3.642191445707070585e+01
4.535503472222222143e+01 8.460661300505050519e+01 3.648555871212121104e+01
4.537492108585858830e+01 8.458720012626262985e+01 3.654348169191919027e+01
4.539532039141413833e+01 8.457508680555555713e+01 3.660602114898989612e+01
4.537898516414141170e+01 8.456048768939393767e+01 3.662472380050505194e+01
4.540384311868687206e+01 8.455046559343433898e+01 3.665510574494949481e+01
4.538005050505050519e+01 8.454750631313130782e+01 3.665198863636363313e+01
4.539839804292929415e+01 8.454265309343433898e+01 3.666086647727272663e+01
4.536564867424242209e+01 8.451889993686869218e+01 3.664674084595959869e+01
4.538561395202020066e+01 8.450145991161616621e+01 3.664461016414141170e+01
4.538900726010101039e+01 8.449854008838383379e+01 3.667073074494949481e+01
4.538944128787878896e+01 8.450907512626262985e+01 3.669389204545454675e+01
4.538265467171716949e+01 8.452738320707071296e+01 3.673839962121212466e+01
4.545032354797979934e+01 8.456380208333332860e+01 3.675714172979797922e+01
4.544866635101010388e+01 8.460396938131313505e+01 3.677205650252525260e+01
4.546133207070707272e+01 8.464378156565656752e+01 3.675994318181817988e+01
4.546330492424242209e+01 8.466122159090909349e+01 3.673713699494949481e+01
4.547766729797979934e+01 8.471819760101010388e+01 3.673208648989898961e+01
4.546989425505050519e+01 8.475808869949494806e+01 3.673867582070707272e+01
4.553716856060606233e+01 8.483830492424242209e+01 3.674771148989898961e+01
4.554186395202020066e+01 8.488419349747475451e+01 3.675335385101010388e+01
4.554628314393939092e+01 8.493753945707071296e+01 3.674483112373737725e+01
4.558218907828283051e+01 8.496697443181818699e+01 3.672865372474747403e+01
4.558869949494949481e+01 8.501546717171717660e+01 3.670312500000000000e+01
4.558700284090909349e+01 8.507437657828282340e+01 3.670584753787878896e+01
4.563750789141413833e+01 8.515407986111111427e+01 3.670774147727272663e+01
4.563076073232323182e+01 8.520651830808080263e+01 3.669878472222222143e+01
4.567408459595959869e+01 8.527367424242424931e+01 3.667503156565656752e+01
4.561359690656565391e+01 8.524854008838383379e+01 3.656924715909090651e+01
4.550611584595959869e+01 8.509639362373737015e+01 3.643004261363636687e+01
4.543465909090909349e+01 8.497885101010101039e+01 3.641145833333333570e+01
4.542416351010101039e+01 8.488675820707071296e+01 3.643284406565656752e+01
4.545718907828283051e+01 8.489800347222222854e+01 3.652726483585858830e+01
4.549889520202020066e+01 8.491729797979797922e+01 3.657623106060606233e+01
4.548737373737373701e+01 8.490909090909090651e+01 3.659974747474747403e+01
4.552375315656565391e+01 8.493568497474747403e+01 3.662302714646464352e+01
4.550726010101010388e+01 8.495801767676768179e+01 3.662531565656565391e+01
4.554071969696969546e+01 8.496780303030303116e+01 3.662910353535353636e+01
4.553910195707070585e+01 8.492120422979797922e+01 3.661391256313131493e+01
4.551653251262626299e+01 8.488663983585858830e+01 3.660475852272727337e+01
4.552367424242424221e+01 8.488794191919191690e+01 3.663510101010101039e+01
4.549388415404040131e+01 8.490407986111111427e+01 3.664950284090909349e+01
4.551811079545454675e+01 8.493888099747475451e+01 3.667104640151514872e+01
4.554383680555555713e+01 8.496302872474747403e+01 3.668256786616161946e+01
4.554936079545454675e+01 8.499696180555555713e+01 3.671176609848485128e+01
4.556616950757575779e+01 8.504565183080808310e+01 3.670284880050505194e+01
4.557149621212121104e+01 8.510022095959595845e+01 3.670202020202020066e+01
4.560783617424242209e+01 8.515044981060606233e+01 3.669921875000000000e+01
4.563064236111111427e+01 8.518635574494949481e+01 3.668067392676767469e+01
4.566197127525252597e+01 8.524214804292928704e+01 3.667349273989898961e+01
4.570182291666666430e+01 8.530314867424242209e+01 3.668367266414141170e+01
4.572451073232323182e+01 8.534146148989898961e+01 3.666295770202020066e+01
4.571074021464646364e+01 8.540865688131313505e+01 3.664839804292929415e+01
4.572604955808080973e+01 8.545348011363635976e+01 3.665802556818182012e+01
4.572790404040404155e+01 8.552825126262625588e+01 3.664204545454545325e+01
4.577856691919191690e+01 8.556944444444444287e+01 3.664993686868687206e+01
4.570470328282828376e+01 8.553361742424242209e+01 3.652572601010101039e+01
4.564303188131312794e+01 8.539792455808080263e+01 3.640834122474747403e+01
4.557019412878787534e+01 8.528010574494949481e+01 3.639247948232323182e+01
4.559974747474747403e+01 8.523942550505050519e+01 3.643229166666666430e+01
4.557193023989898961e+01 8.521223958333332860e+01 3.650548453282828376e+01
4.559678819444444287e+01 8.521200284090909349e+01 3.658368844696969546e+01
4.560645517676767469e+01 8.522356376262625588e+01 3.656826073232323182e+01
4.563012941919191690e+01 8.524124053030303116e+01 3.660061553030303116e+01
4.565360637626262275e+01 8.523078440656566102e+01 3.660752051767676818e+01
4.562752525252525260e+01 8.522616792929292728e+01 3.659848484848485128e+01
4.562208017676767469e+01 8.518095012626262985e+01 3.657867739898989612e+01
4.560503472222222143e+01 8.513865214646465063e+01 3.657725694444444287e+01
4.558132102272727337e+01 8.514113794191919737e+01 3.659489425505050519e+01
4.563210227272727337e+01 8.515309343434343248e+01 3.662642045454545325e+01
4.561245265151514872e+01 8.517574179292928704e+01 3.665269886363636687e+01
4.559883996212121104e+01 8.518990688131313505e+01 3.666891571969696884e+01
4.561107165404040131e+01 8.522723327020202078e+01 3.668919665404040131e+01
4.565628945707070585e+01 8.525824652777777146e+01 3.667459753787878896e+01
4.564713541666666430e+01 8.527497632575757791e+01 3.667349273989898961e+01
4.566670612373737725e+01 8.531395991161616621e+01 3.667080965909090651e+01
4.565443497474747403e+01 8.535471906565656752e+01 3.666611426767676818e+01
4.567826704545454675e+01 8.538770517676768179e+01 3.664875315656565391e+01
4.568023989898989612e+01 8.542582070707071296e+01 3.665325126262626299e+01
4.571038510101010388e+01 8.544933712121212466e+01 3.663762626262626299e+01
4.572344539141413833e+01 8.550769412878787534e+01 3.664752998737373701e+01
4.573717645202020066e+01 8.555125473484848442e+01 3.663869160353535648e+01
4.569760101010101039e+01 8.551152146464646364e+01 3.654229797979797922e+01
4.557792771464646364e+01 8.533850220959595845e+01 3.640147569444444287e+01
4.552635732323232531e+01 8.517187500000000000e+01 3.636994949494949481e+01
4.548145517676767469e+01 8.506226325757575069e+01 3.641500946969696884e+01
4.548327020202020066e+01 8.501499368686869218e+01 3.649037247474747403e+01
4.550299873737373701e+01 8.496875000000000000e+01 3.654892676767676818e+01
4.547679924242424221e+01 8.494633838383838054e+01 3.657133838383838054e+01
4.552485795454545325e+01 8.492542613636364024e+01 3.661624053030303116e+01
4.552347695707070585e+01 8.490368529040404155e+01 3.664042771464646364e+01
4.552600220959595845e+01 8.486754261363635976e+01 3.665984059343434609e+01
4.551357323232323182e+01 8.481849747474747403e+01 3.667266414141413833e+01
4.542443970959595845e+01 8.473441445707071296e+01 3.664382102272727337e+01
4.545087594696969546e+01 8.471965751262625588e+01 3.668730271464646364e+01
4.544969223484848442e+01 8.471184501262625588e+01 3.671531723484848442e+01
4.548709753787878896e+01 8.472857481060606233e+01 3.674688289141413833e+01
4.550485321969696884e+01 8.474112215909090651e+01 3.678626104797979934e+01
4.549739583333333570e+01 8.477075441919191690e+01 3.680516098484848442e+01
4.551329703282828376e+01 8.481427556818181301e+01 3.679912405303030454e+01
4.554888731060606233e+01 8.484655145202020776e+01 3.680220170454545325e+01
4.553890467171716949e+01 8.486071654040404155e+01 3.680011047979797922e+01
4.555938289141413833e+01 8.488308869949494806e+01 3.680338541666666430e+01
4.553136837121212466e+01 8.491268150252524549e+01 3.679036458333333570e+01
4.553061868686868507e+01 8.494065656565656752e+01 3.678898358585858830e+01
4.556380208333333570e+01 8.499435763888888573e+01 3.676361268939393767e+01
4.558842329545454675e+01 8.501961016414141170e+01 3.676692708333333570e+01
4.562330334595959869e+01 8.505086016414141170e+01 3.677592329545454675e+01
4.561150568181817988e+01 8.511702967171717660e+01 3.676270517676767469e+01
4.556597222222222143e+01 8.505334595959595845e+01 3.666698232323232531e+01
4.541816603535353636e+01 8.483420138888888573e+01 3.652201704545454675e+01
4.534110637626262275e+01 8.468564551767676107e+01 3.652055713383838054e+01
4.535775726010101039e+01 8.453641887626262985e+01 3.661012468434343248e+01
4.538001104797979934e+01 8.446618529040404155e+01 3.669614109848485128e+01
4.535266729797979934e+01 8.438407512626262985e+01 3.675844381313131493e+01
4.533467487373737725e+01 8.432315340909090651e+01 3.677217487373737725e+01
4.530721275252525260e+01 8.425213068181818699e+01 3.680737058080808310e+01
4.530571338383838054e+01 8.420959595959595845e+01 3.683775252525252597e+01
4.529794034090909349e+01 8.416378630050505194e+01 3.688285195707070585e+01
4.531159248737373701e+01 8.411919981060606233e+01 3.691181344696969546e+01
4.526838699494949481e+01 8.402580492424242209e+01 3.691374684343434609e+01
4.526964962121212466e+01 8.400228851010101039e+01 3.692826704545454675e+01
4.526578282828283051e+01 8.398847853535353636e+01 3.696732954545454675e+01
4.529083806818182012e+01 8.398764993686869218e+01 3.698038983585858830e+01
4.529569128787878896e+01 8.400039457070707272e+01 3.699297664141413833e+01
4.531419665404040131e+01 8.403752367424242209e+01 3.703705018939393767e+01
4.533092645202020066e+01 8.407256155303029743e+01 3.704557291666666430e+01
4.533076862373737725e+01 8.409197443181818699e+01 3.704383680555555713e+01
4.534635416666666430e+01 8.414733270202020776e+01 3.704821654040404155e+01
4.534974747474747403e+01 8.417803030303029743e+01 3.705097853535353636e+01
4.538821811868687206e+01 8.421081912878787534e+01 3.705598958333333570e+01
4.539279513888888573e+01 8.425217013888888573e+01 3.704415246212121104e+01
4.540834122474747403e+01 8.429502051767676107e+01 3.702939551767676818e+01
4.543166035353535648e+01 8.433885732323231821e+01 3.703172348484848442e+01
4.544531250000000000e+01 8.439859532828282340e+01 3.701554608585858830e+01
4.545205965909090651e+01 8.445111268939393767e+01 3.702544981060606233e+01
4.546251578282828376e+01 8.450954861111111427e+01 3.703227588383838054e+01
4.547683869949494806e+01 8.456096117424242209e+01 3.697241950757575779e+01
4.533996212121212466e+01 8.439535984848484418e+01 3.678993055555555713e+01
4.527312184343434609e+01 8.418584280303029743e+01 3.670557133838384090e+01
4.523690025252525260e+01 8.404577020202020776e+01 3.677130681818182012e+01
4.523989898989898961e+01 8.397080176767676107e+01 3.684169823232323182e+01
4.523311237373737725e+01 8.391934974747475451e+01 3.689977904040404155e+01
4.522794349747474740e+01 8.386919981060606233e+01 3.693864425505050519e+01
4.519136679292929415e+01 8.381478851010101039e+01 3.698966224747474740e+01
4.520549242424242209e+01 8.377272727272726627e+01 3.701988636363636687e+01
4.516532512626262275e+01 8.375607638888888573e+01 3.703338068181817988e+01
4.519633838383838054e+01 8.373279671717172334e+01 3.704419191919191690e+01
4.519487847222222143e+01 8.371855271464646364e+01 3.705788352272727337e+01
4.518154198232323182e+01 8.368659248737374412e+01 3.706380208333333570e+01
4.518406723484848442e+01 8.368169981060606233e+01 3.707863794191919027e+01
4.519681186868687206e+01 8.369049873737374412e+01 3.709848484848485128e+01
4.520675505050505194e+01 8.370928030303029743e+01 3.711931818181817988e+01
4.522585227272727337e+01 8.375520833333332860e+01 3.715183080808080973e+01
4.523319128787878896e+01 8.378038194444444287e+01 3.715538194444444287e+01
4.526215277777777857e+01 8.384264520202020776e+01 3.712910353535353636e+01
4.529592803030303116e+01 8.387563131313130782e+01 3.713431186868687206e+01
4.528756313131312794e+01 8.391982323232323893e+01 3.714046717171716949e+01
4.529387626262626299e+01 8.395785984848484418e+01 3.713446969696969546e+01
4.532125946969696884e+01 8.400576073232323893e+01 3.712223800505050519e+01
4.535598169191919027e+01 8.406352588383838054e+01 3.712681502525252597e+01
4.538395675505050519e+01 8.415731534090909349e+01 3.710728377525252597e+01
4.539149305555555713e+01 8.419262941919191690e+01 3.710377209595959869e+01
4.542073074494949481e+01 8.425816761363635976e+01 3.710128630050505194e+01
4.543450126262626299e+01 8.432165404040404155e+01 3.710006313131312794e+01
4.544941603535353636e+01 8.437397411616161946e+01 3.709019886363636687e+01
4.543343592171716949e+01 8.445079703282827666e+01 3.707926925505050519e+01
4.545419034090909349e+01 8.448907039141414543e+01 3.701621685606060908e+01
4.534240845959595845e+01 8.437918244949494806e+01 3.682820391414141170e+01
4.524562026515151558e+01 8.422526041666667140e+01 3.673883364898989612e+01
4.520032354797979934e+01 8.415329071969696884e+01 3.677039930555555713e+01
4.523638731060606233e+01 8.411028251262625588e+01 3.682540246212121104e+01
4.525883838383838054e+01 8.409390782828282340e+01 3.687989267676767469e+01
4.525864109848485128e+01 8.408013731060606233e+01 3.689642518939393767e+01
4.527438446969696884e+01 8.407536300505050519e+01 3.691295770202020066e+01
4.528811553030303116e+01 8.406794507575757791e+01 3.692747790404040131e+01
4.526231060606060908e+01 8.407370580808080263e+01 3.694428661616161946e+01
4.528582702020202078e+01 8.408254419191919737e+01 3.694870580808080973e+01
4.526116635101010388e+01 8.407982165404040131e+01 3.693651357323232531e+01
4.530306976010101039e+01 8.407342960858585457e+01 3.693974905303030454e+01
4.528314393939393767e+01 8.406676136363635976e+01 3.696354166666666430e+01
4.528073705808080973e+01 8.410933554292928704e+01 3.699096433080808310e+01
4.530551609848485128e+01 8.412843276515151558e+01 3.700059185606060908e+01
4.535191761363636687e+01 8.417609690656566102e+01 3.700501104797979934e+01
4.534130366161615910e+01 8.425023674242424931e+01 3.700370896464646364e+01
4.541078756313131493e+01 8.428294665404040131e+01 3.700927241161615910e+01
4.534883996212121104e+01 8.435531092171717660e+01 3.696642203282828376e+01
4.535925662878787534e+01 8.439666193181818699e+01 3.697115688131312794e+01
4.539622790404040131e+01 8.444673295454545325e+01 3.698571654040404155e+01
4.543659248737373701e+01 8.449230587121212466e+01 3.698378314393939092e+01
4.545730744949494806e+01 8.454095643939393767e+01 3.695620265151514872e+01
4.544191919191919027e+01 8.459911616161616621e+01 3.693781565656565391e+01
4.547241950757575779e+01 8.465329071969696884e+01 3.691733743686868507e+01
4.549708017676767469e+01 8.470935921717172334e+01 3.691737689393939092e+01
4.551037720959595845e+01 8.479809816919191690e+01 3.690131786616161946e+01
4.555733112373737725e+01 8.485799400252524549e+01 3.690392203282828376e+01
4.554529671717171624e+01 8.491682449494949481e+01 3.690435606060606233e+01
4.556912878787878896e+01 8.496227904040404155e+01 3.685101010101010388e+01
4.548405934343434609e+01 8.487642045454545325e+01 3.669381313131312794e+01
4.539133522727272663e+01 8.476349431818181301e+01 3.659903724747474740e+01
4.537196180555555713e+01 8.471807922979797922e+01 3.659876104797979934e+01
4.542688604797979934e+01 8.471176609848484418e+01 3.664658301767676818e+01
4.541737689393939092e+01 8.472419507575757791e+01 3.668173926767676818e+01
4.543394886363636687e+01 8.473839962121212466e+01 3.669831123737373701e+01
4.543434343434343248e+01 8.474147727272726627e+01 3.671401515151514872e+01
4.545612373737373701e+01 8.476846590909090651e+01 3.673200757575757791e+01
4.548473011363636687e+01 8.479786142676768179e+01 3.673883364898989612e+01
4.545691287878787534e+01 8.480145202020202078e+01 3.672048611111111427e+01
4.546160827020202078e+01 8.480172821969696884e+01 3.672013099747474740e+01
4.547908775252525260e+01 8.479553345959595845e+01 3.672103851010101039e+01
4.549037247474747403e+01 8.483759469696970257e+01 3.673358585858586167e+01
4.548650568181817988e+01 8.487286931818181301e+01 3.673776830808080973e+01
4.548697916666666430e+01 8.490459280303029743e+01 3.676791351010101039e+01
4.554237689393939092e+01 8.495162563131313505e+01 3.675323547979797922e+01
4.554932133838384090e+01 8.500434027777777146e+01 3.675654987373737725e+01
4.556613005050505194e+01 8.506376262626262985e+01 3.674558080808080973e+01
4.559154040404040131e+01 8.509043560606060908e+01 3.673658459595959869e+01
4.554904513888888573e+01 8.515857796717172334e+01 3.669724589646464352e+01
4.558834438131312794e+01 8.518777619949494806e+01 3.671523832070707272e+01
4.560606060606060908e+01 8.524558080808080263e+01 3.669554924242424221e+01
4.562314551767676818e+01 8.528460385101010388e+01 3.668327809343434609e+01
4.565411931818182012e+01 8.533009785353534937e+01 3.668016098484848442e+01
4.562097537878787534e+01 8.538944128787878185e+01 3.666800820707070585e+01
4.566410195707070585e+01 8.543083175505050519e+01 3.666883680555555713e+01
4.570063920454545325e+01 8.550461647727273373e+01 3.666118213383838054e+01
4.570675505050505194e+01 8.558617424242424931e+01 3.666871843434343248e+01
4.570233585858586167e+01 8.559927398989898961e+01 3.659880050505050519e+01
4.558357007575757791e+01 8.547672032828282340e+01 3.643300189393939092e+01
4.552635732323232531e+01 8.538920454545454675e+01 3.635227272727272663e+01
4.556723484848485128e+01 8.538589015151515582e+01 3.638352272727272663e+01
4.556806344696969546e+01 8.540250157828282340e+01 3.643738162878787534e+01
4.562350063131312794e+01 8.543915719696970257e+01 3.648839962121212466e+01
4.563975694444444287e+01 8.545178345959595845e+01 3.651144255050505194e+01
4.563896780303030454e+01 8.544878472222222854e+01 3.650370896464646364e+01
4.561205808080808310e+01 8.548295454545454675e+01 3.650489267676767469e+01
4.564583333333333570e+01 8.551688762626262985e+01 3.650615530303030454e+01
4.564551767676767469e+01 8.552225378787878185e+01 3.648879419191919027e+01
4.561600378787878896e+01 8.549573863636364024e+01 3.648090277777777857e+01
4.566974431818182012e+01 8.551065340909090651e+01 3.648161300505050519e+01
4.567420296717171624e+01 8.555819917929292728e+01 3.649869791666666430e+01
4.564634627525252597e+01 8.559568339646465063e+01 3.653286773989898961e+01
4.569223484848485128e+01 8.562578914141414543e+01 3.653614267676767469e+01
4.570336174242424221e+01 8.566658775252524549e+01 3.653795770202020066e+01
4.573031092171716949e+01 8.570695233585858830e+01 3.654533617424242209e+01
4.574242424242424221e+01 8.576594065656566102e+01 3.654829545454545325e+01
4.576361268939393767e+01 8.580938289141414543e+01 3.653791824494949481e+01
4.579367897727272663e+01 8.586517518939393767e+01 3.652552872474747403e+01
4.579829545454545325e+01 8.590877525252524549e+01 3.649210858585858830e+01
4.574199021464646364e+01 8.594353693181818699e+01 3.645016571969696884e+01
4.578109217171716949e+01 8.599384469696970257e+01 3.645312500000000000e+01
4.582275883838384090e+01 8.603708964646465063e+01 3.647837752525252597e+01
4.582919034090909349e+01 8.610381155303029743e+01 3.647612847222222143e+01
4.583917297979797922e+01 8.615309343434343248e+01 3.646890782828283051e+01
4.587271148989898961e+01 8.618647411616161946e+01 3.644878472222222143e+01
4.578783933080808310e+01 8.613679766414141170e+01 3.632477114898989612e+01
4.572964015151514872e+01 8.600157828282827666e+01 3.621291035353535648e+01
4.566157670454545325e+01 8.591978377525252597e+01 3.617294034090909349e+01
4.571847380050505194e+01 8.593817077020202078e+01 3.621957859848485128e+01
4.572533933080808310e+01 8.596176609848484418e+01 3.626100852272727337e+01
4.575698390151514872e+01 8.598378314393939092e+01 3.629328440656565391e+01
4.573457228535353636e+01 8.600903566919191690e+01 3.630827809343434609e+01
4.573985953282828376e+01 8.602079387626262985e+01 3.632808554292929415e+01
4.573267834595959869e+01 8.602971117424242209e+01 3.631411773989898961e+01
4.574613320707070585e+01 8.602138573232323893e+01 3.629064078282828376e+01
4.574601483585858830e+01 8.601258680555555713e+01 3.628436710858586167e+01
4.576085069444444287e+01 8.600706281565656752e+01 3.628547190656565391e+01
4.575074968434343248e+01 8.602095170454545325e+01 3.630362215909090651e+01
4.577473958333333570e+01 8.605709438131313505e+01 3.631782670454545325e+01
4.579083806818182012e+01 8.608313604797979224e+01 3.633944917929292728e+01
4.581407828282828376e+01 8.615230429292928704e+01 3.634106691919191690e+01
4.579391571969696884e+01 8.618675031565656752e+01 3.633021622474747403e+01
4.583550347222222143e+01 8.621697443181818699e+01 3.633061079545454675e+01
4.581743213383838054e+01 8.625114425505050519e+01 3.630938289141413833e+01
4.586545138888888573e+01 8.630658143939393767e+01 3.631115845959595845e+01
4.589488636363636687e+01 8.634043560606060908e+01 3.630145202020202078e+01
4.588983585858586167e+01 8.639204545454545325e+01 3.630571338383838054e+01
4.588281250000000000e+01 8.641848169191919737e+01 3.628764204545454675e+01
4.591887626262626299e+01 8.647174873737374412e+01 3.628598484848485128e+01
4.591860006313131493e+01 8.651029829545454675e+01 3.625856218434343248e+01
4.591122159090909349e+01 8.658593750000000000e+01 3.622956123737373701e+01
4.592507102272727337e+01 8.662993213383838054e+01 3.624325284090909349e+01
4.592479482323232531e+01 8.664796401515151558e+01 3.621756628787878896e+01
4.583333333333333570e+01 8.653898358585858830e+01 3.607465277777777857e+01
4.574767203282828376e+01 8.642696496212121815e+01 3.595063920454545325e+01
4.572581281565656752e+01 8.637275094696970257e+01 3.594740372474747403e+01
4.573887310606060908e+01 8.636245265151515582e+01 3.598145517676767469e+01
4.579474431818182012e+01 8.637649936868686495e+01 3.604442866161615910e+01
4.578199968434343248e+01 8.635065498737374412e+01 3.607114109848485128e+01
4.578168402777777857e+01 8.633960700757575069e+01 3.606972064393939092e+01
4.579782196969696884e+01 8.632670454545454675e+01 3.608759469696969546e+01
4.580527935606060908e+01 8.632485006313130782e+01 3.609189551767676818e+01
4.577454229797979934e+01 8.632678345959595845e+01 3.609540719696969546e+01
4.579115372474747403e+01 8.632492897727273373e+01 3.610033933080808310e+01
4.583136047979797922e+01 8.632978219696970257e+01 3.611718750000000000e+01
4.581518308080808310e+01 8.634816919191919737e+01 3.613667929292929415e+01
4.576554608585858830e+01 8.632994002525252597e+01 3.612618371212121104e+01
4.582776988636363313e+01 8.634781407828282340e+01 3.614200599747474740e+01
4.581912878787878896e+01 8.637847222222222854e+01 3.616161616161615910e+01
4.584086963383838054e+01 8.639500473484848442e+01 3.616410195707070585e+01
4.586083491161615910e+01 8.643438289141414543e+01 3.614950284090909349e+01
4.587934027777777857e+01 8.647577335858585457e+01 3.615317234848485128e+01
4.588028724747474740e+01 8.651586174242424931e+01 3.615727588383838054e+01
4.589228219696969546e+01 8.655389835858585457e+01 3.614859532828283051e+01
4.587843276515151558e+01 8.659008049242424931e+01 3.613016887626262275e+01
4.590392203282828376e+01 8.663608743686869218e+01 3.611178188131312794e+01
4.592846433080808310e+01 8.667814867424242209e+01 3.612022569444444287e+01
4.595920138888888573e+01 8.674550189393939092e+01 3.613675820707070585e+01
4.599337121212121104e+01 8.680366161616161946e+01 3.613289141414141170e+01
4.599573863636363313e+01 8.685606060606060908e+01 3.613257575757575779e+01
4.597549715909090651e+01 8.688632417929292728e+01 3.610728377525252597e+01
4.598551925505050519e+01 8.696500157828282340e+01 3.610136521464646364e+01
4.599230587121212466e+01 8.698615056818181301e+01 3.604391571969696884e+01
4.586923926767676818e+01 8.683720012626262985e+01 3.587286931818182012e+01
4.578413036616161946e+01 8.669827178030303116e+01 3.575761521464646364e+01
4.577063604797979934e+01 8.666205018939393767e+01 3.577126736111111427e+01
4.582721748737373701e+01 8.662945864898989612e+01 3.582311395202020066e+01
4.582745422979797922e+01 8.665999842171717660e+01 3.588553503787878896e+01
4.581901041666666430e+01 8.664255839646465063e+01 3.589650410353535648e+01
4.582449494949494806e+01 8.664488636363635976e+01 3.591635101010101039e+01
4.585657354797979934e+01 8.664634627525252597e+01 3.591796875000000000e+01
4.581739267676767469e+01 8.666130050505050519e+01 3.593008207070707272e+01
4.587354008838384090e+01 8.666599589646465063e+01 3.595261205808080973e+01
4.585349589646464352e+01 8.666252367424242209e+01 3.595687342171716949e+01
4.588253630050505194e+01 8.664216382575757791e+01 3.595971433080808310e+01
4.589512310606060908e+01 8.664338699494949481e+01 3.595636047979797922e+01
4.588348327020202078e+01 8.666283933080808310e+01 3.597912720959595845e+01
4.587215909090909349e+01 8.669333964646465063e+01 3.600710227272727337e+01
4.592688604797979934e+01 8.672960069444444287e+01 3.604178503787878896e+01
4.592874053030303116e+01 8.674676452020202078e+01 3.603590593434343248e+01
4.592365056818182012e+01 8.677213541666667140e+01 3.602134627525252597e+01
4.591607481060606233e+01 8.680259627525252597e+01 3.601266571969696884e+01
4.596385732323232531e+01 8.683538510101010388e+01 3.602209595959595845e+01
4.595407196969696884e+01 8.687847222222222854e+01 3.601341540404040131e+01
4.600299873737373701e+01 8.691635101010101039e+01 3.601925505050505194e+01
4.599936868686868507e+01 8.696133207070707272e+01 3.600741792929292728e+01
4.598650568181817988e+01 8.699171401515151558e+01 3.598918876262626299e+01
4.599246369949494806e+01 8.703491950757575069e+01 3.597920612373737725e+01
4.602138573232323182e+01 8.709367108585858830e+01 3.597135416666666430e+01
4.601254734848485128e+01 8.712381628787878185e+01 3.595525568181817988e+01
4.605993529040404155e+01 8.717041508838383379e+01 3.595276988636363313e+01
4.606853693181817988e+01 8.724072758838383379e+01 3.594906092171716949e+01
4.603811553030303116e+01 8.731289457070707272e+01 3.592463699494949481e+01
4.601937342171716949e+01 8.732997948232323893e+01 3.592120422979797922e+01
4.596354166666666430e+01 8.718481691919191690e+01 3.572553661616161946e+01
4.588967803030303116e+01 8.705729166666667140e+01 3.559469696969696884e+01
4.588719223484848442e+01 8.699956597222222854e+01 3.559868213383838054e+01
4.588869160353535648e+01 8.699790877525252597e+01 3.566788983585858830e+01
4.594554924242424221e+01 8.699005681818181301e+01 3.570202020202020066e+01
4.593229166666666430e+01 8.702904040404040131e+01 3.574558080808080973e+01
4.593300189393939092e+01 8.703085542929292728e+01 3.575055239898989612e+01
4.593241003787878896e+01 8.704146938131313505e+01 3.575027619949494806e+01
4.594401041666666430e+01 8.704012784090909349e+01 3.577134627525252597e+01
4.594570707070707272e+01 8.703077651515151558e+01 3.577225378787878896e+01
4.596729008838384090e+01 8.701700599747475451e+01 3.576053503787878896e+01
4.595576862373737725e+01 8.699222695707071296e+01 3.575785195707070585e+01
4.593288352272727337e+01 8.698749210858585457e+01 3.576874210858586167e+01
4.593461963383838054e+01 8.700359059343433898e+01 3.576290246212121104e+01
4.597234059343434609e+01 8.702647569444444287e+01 3.579194286616161946e+01
4.593852588383838054e+01 8.706321022727273373e+01 3.581068497474747403e+01
4.599277935606060908e+01 8.712030460858585457e+01 3.585168087121212466e+01
4.600280145202020066e+01 8.717104640151515582e+01 3.584434185606060908e+01
4.601598011363636687e+01 8.719385258838383379e+01 3.583258364898989612e+01
4.603207859848485128e+01 8.723362531565656752e+01 3.582453440656565391e+01
4.602576546717171624e+01 8.726519097222222854e+01 3.580938289141413833e+01
4.603101325757575779e+01 8.730137310606060908e+01 3.581526199494949481e+01
4.606924715909090651e+01 8.731719539141414543e+01 3.580472695707070585e+01
4.607780934343434609e+01 8.737357954545454675e+01 3.578677398989898961e+01
4.607646780303030454e+01 8.738975694444444287e+01 3.578811553030303116e+01
4.610187815656565391e+01 8.745194128787878185e+01 3.578732638888888573e+01
4.612961647727272663e+01 8.751235006313130782e+01 3.580591066919191690e+01
4.611592487373737725e+01 8.754648042929292728e+01 3.578369633838384090e+01
4.614425505050505194e+01 8.760369318181818699e+01 3.578393308080808310e+01
4.611608270202020066e+01 8.764970012626262985e+01 3.573587436868687206e+01
4.610278566919191690e+01 8.761004577020202078e+01 3.564145359848485128e+01
4.596606691919191690e+01 8.744097222222222854e+01 3.546701388888888573e+01
4.596918402777777857e+01 8.736328125000000000e+01 3.545008680555555713e+01
4.595943813131312794e+01 8.735006313131313505e+01 3.546732954545454675e+01
4.600082859848485128e+01 8.735815183080808310e+01 3.552466066919191690e+01
4.598042929292929415e+01 8.738952020202020776e+01 3.554119318181817988e+01
4.599581755050505194e+01 8.741958648989898961e+01 3.559745896464646364e+01
4.603622159090909349e+01 8.743994633838383379e+01 3.558546401515151558e+01
4.603034248737373701e+01 8.745332228535353636e+01 3.559726167929292728e+01
4.602154356060606233e+01 8.744231376262625588e+01 3.559382891414141170e+01
4.604509943181817988e+01 8.744503630050505194e+01 3.557477114898989612e+01
4.600994318181817988e+01 8.743213383838383379e+01 3.557007575757575779e+01
4.608672664141413833e+01 8.745273042929292728e+01 3.558088699494949481e+01
4.603965435606060908e+01 8.747794349747475451e+01 3.559347380050505194e+01
4.605531881313131493e+01 8.750607638888888573e+01 3.562460542929292728e+01
4.604458648989898961e+01 8.750970643939393767e+01 3.563407512626262275e+01
4.607915088383838054e+01 8.754648042929292728e+01 3.565380366161615910e+01
4.609753787878787534e+01 8.759106691919191690e+01 3.564330808080808310e+01
4.612444760101010388e+01 8.760992739898989612e+01 3.564812184343434609e+01
4.614058554292929415e+01 8.764910827020202078e+01 3.564169034090909349e+01
4.615392203282828376e+01 8.767885890151515582e+01 3.563861268939393767e+01
4.616303661616161946e+01 8.771038510101010388e+01 3.562642045454545325e+01
4.618659248737373701e+01 8.774877683080808310e+01 3.562472380050505194e+01
4.616611426767676818e+01 8.777990845959595845e+01 3.561766098484848442e+01
4.619724589646464352e+01 8.781451231060606233e+01 3.562133049242424221e+01
4.619227430555555713e+01 8.785941445707071296e+01 3.561841066919191690e+01
4.621642203282828376e+01 8.790407986111111427e+01 3.561604324494949481e+01
4.624317392676767469e+01 8.794977114898989612e+01 3.562117266414141170e+01
4.624471275252525260e+01 8.797656250000000000e+01 3.559098800505050519e+01
4.615640782828283051e+01 8.791177398989898961e+01 3.545249368686868507e+01
4.607003630050505194e+01 8.778263099747475451e+01 3.527458175505050519e+01
4.604107481060606233e+01 8.773362531565656752e+01 3.528791824494949481e+01
4.606167140151514872e+01 8.772060448232323893e+01 3.535081281565656752e+01
4.606040877525252597e+01 8.774254261363635976e+01 3.540842013888888573e+01
4.610961174242424221e+01 8.775039457070707272e+01 3.544578598484848442e+01
4.612211963383838054e+01 8.775595801767676107e+01 3.546429135101010388e+01
4.612515782828283051e+01 8.774857954545454675e+01 3.547380050505050519e+01
4.610310132575757791e+01 8.776061395202020776e+01 3.548252051767676818e+01
4.610791508838384090e+01 8.772312973484848442e+01 3.546523832070707272e+01
4.609706439393939092e+01 8.771748737373737015e+01 3.543181818181817988e+01
4.607102272727272663e+01 8.769318181818181301e+01 3.543939393939393767e+01
4.608704229797979934e+01 8.769247159090909349e+01 3.545083648989898961e+01
4.611860795454545325e+01 8.774060921717172334e+01 3.548887310606060908e+01
4.613186553030303116e+01 8.776459911616161946e+01 3.550086805555555713e+01
4.614543876262626299e+01 8.779048295454545325e+01 3.551538825757575779e+01
4.617148042929292728e+01 8.781147411616161946e+01 3.552785669191919027e+01
4.616228693181817988e+01 8.783984375000000000e+01 3.551913667929292728e+01
4.614476799242424221e+01 8.785325915404040131e+01 3.549325284090909349e+01
4.617858270202020066e+01 8.788596906565656752e+01 3.549771148989898961e+01
4.618773674242424221e+01 8.793284406565656752e+01 3.549218750000000000e+01
4.621677714646464352e+01 8.797135416666667140e+01 3.549581755050505194e+01
4.621358112373737725e+01 8.799009627525252597e+01 3.547510258838384090e+01
4.621377840909090651e+01 8.801554608585858830e+01 3.548934659090909349e+01
4.621551452020202078e+01 8.804900568181818699e+01 3.549281881313131493e+01
4.625114425505050519e+01 8.808053188131313505e+01 3.548520359848485128e+01
4.625299873737373701e+01 8.811537247474747403e+01 3.548042929292929415e+01
4.624613320707070585e+01 8.812413194444444287e+01 3.542369002525252597e+01
4.612661773989898961e+01 8.799214804292928704e+01 3.527229324494949481e+01
4.604261363636363313e+01 8.786016414141414543e+01 3.515609217171716949e+01
4.603416982323232531e+01 8.776396780303029743e+01 3.515838068181817988e+01
4.601815025252525260e+01 8.776609848484848442e+01 3.521196338383838054e+01
4.602012310606060908e+01 8.772687815656566102e+01 3.528069760101010388e+01
4.603803661616161946e+01 8.773595328282827666e+01 3.530760732323232531e+01
4.603969381313131493e+01 8.771314709595959869e+01 3.533625315656565391e+01
4.605287247474747403e+01 8.768781565656566102e+01 3.534816919191919027e+01
4.604557291666666430e+01 8.769708806818181301e+01 3.536612215909090651e+01
4.605070233585858830e+01 8.767933238636364024e+01 3.537945864898989612e+01
4.603555082070707272e+01 8.764618844696970257e+01 3.537930082070707272e+01
4.605555555555555713e+01 8.761537247474747403e+01 3.539062500000000000e+01
4.602339804292929415e+01 8.758258364898989612e+01 3.540407986111111427e+01
4.603361742424242209e+01 8.758743686868686495e+01 3.543118686868687206e+01
4.605760732323232531e+01 8.759043560606060908e+01 3.546275252525252597e+01
4.607615214646464352e+01 8.761908143939393767e+01 3.549029356060606233e+01
4.609481534090909349e+01 8.762527619949494806e+01 3.550706281565656752e+01
4.610456123737373701e+01 8.766642992424242209e+01 3.552170138888888573e+01
4.611229482323232531e+01 8.768915719696970257e+01 3.550197285353535648e+01
4.610980902777777857e+01 8.771918402777777146e+01 3.550453756313131493e+01
4.610996685606060908e+01 8.774459438131313505e+01 3.549806660353535648e+01
4.613498263888888573e+01 8.776613794191919737e+01 3.549909248737373701e+01
4.615632891414141170e+01 8.778227588383838054e+01 3.549676452020202078e+01
4.614614898989898961e+01 8.780981691919191690e+01 3.548910984848485128e+01
4.616816603535353636e+01 8.784666982323231821e+01 3.549613320707070585e+01
4.617499210858586167e+01 8.788174715909090651e+01 3.549506786616161946e+01
4.616887626262626299e+01 8.789599116161616621e+01 3.548579545454545325e+01
4.620269097222222143e+01 8.793327809343433898e+01 3.547526041666666430e+01
4.611777935606060908e+01 8.790202809343433898e+01 3.536683238636363313e+01
4.607086489898989612e+01 8.769412878787878185e+01 3.520486111111111427e+01
4.596934185606060908e+01 8.756309185606060908e+01 3.518319917929292728e+01
4.592952967171716949e+01 8.748208648989898961e+01 3.524471275252525260e+01
4.595253314393939092e+01 8.745032354797979224e+01 3.530622632575757791e+01
4.596362058080808310e+01 8.742416351010101039e+01 3.535740214646464352e+01
4.597932449494949481e+01 8.738273358585858830e+01 3.537926136363636687e+01
4.595924084595959869e+01 8.731924715909090651e+01 3.542199337121212466e+01
4.593777619949494806e+01 8.730456912878787534e+01 3.545797821969696884e+01
4.594716698232323182e+01 8.727213541666667140e+01 3.547478693181817988e+01
4.592084911616161946e+01 8.723619002525252597e+01 3.548745265151514872e+01
4.592799084595959869e+01 8.717657039141414543e+01 3.549285827020202078e+01
4.590151515151514872e+01 8.710337752525252597e+01 3.549305555555555713e+01
4.588628472222222143e+01 8.707410037878787534e+01 3.553985164141413833e+01
4.589350536616161946e+01 8.709173768939393767e+01 3.556822127525252597e+01
4.594756155303030454e+01 8.710870422979797922e+01 3.560160195707070585e+01
4.591808712121212466e+01 8.712357954545454675e+01 3.562626262626262275e+01
4.593978851010101039e+01 8.714023042929292728e+01 3.563675820707070585e+01
4.594495738636363313e+01 8.716402304292928704e+01 3.563214172979797922e+01
4.596188446969696884e+01 8.717163825757575069e+01 3.563454861111111427e+01
4.595580808080808310e+01 8.721148989898989612e+01 3.563478535353535648e+01
4.600047348484848442e+01 8.723311237373737015e+01 3.564678030303030454e+01
4.599806660353535648e+01 8.726290246212121815e+01 3.564563604797979934e+01
4.598907039141413833e+01 8.729336332070707272e+01 3.565826231060606233e+01
4.602789614898989612e+01 8.729525726010101039e+01 3.561012468434343248e+01
4.606699810606060908e+01 8.733230744949494806e+01 3.562886679292929415e+01
4.603922032828283051e+01 8.737981376262625588e+01 3.563186553030303116e+01
4.607378472222222143e+01 8.741974431818181301e+01 3.564938446969696884e+01
4.606052714646464352e+01 8.746156881313130782e+01 3.563344381313131493e+01
4.609284248737373701e+01 8.748867582070707272e+01 3.561478061868687206e+01
4.596137152777777857e+01 8.736193970959595845e+01 3.544637784090909349e+01
4.583862058080808310e+01 8.718473800505050519e+01 3.533214962121212466e+01
4.581853693181817988e+01 8.707848011363635976e+01 3.533574021464646364e+01
4.585988794191919027e+01 8.701424400252524549e+01 3.543012152777777857e+01
4.584860321969696884e+01 8.697865372474747403e+01 3.548796559343434609e+01
4.585854640151514872e+01 8.694740372474747403e+01 3.554304766414141170e+01
4.583613478535353636e+01 8.688853377525252597e+01 3.556198705808080973e+01
4.587373737373737725e+01 8.684327651515151558e+01 3.559753787878787534e+01
4.583491161616161946e+01 8.678093434343433898e+01 3.563510101010101039e+01
4.581869476010101039e+01 8.676897885101010388e+01 3.565770991161615910e+01
4.579628314393939092e+01 8.674467329545454675e+01 3.565597380050505194e+01
4.583814709595959869e+01 8.668505366161616621e+01 3.568000315656565391e+01
4.581987847222222143e+01 8.666536458333332860e+01 3.568998579545454675e+01
4.582883522727272663e+01 8.666137941919191690e+01 3.572719381313131493e+01
4.584232954545454675e+01 8.667045454545454675e+01 3.574668560606060908e+01
4.583696338383838054e+01 8.668292297979797922e+01 3.577509469696969546e+01
4.585183869949494806e+01 8.667806976010101039e+01 3.578160511363636687e+01
4.588427241161615910e+01 8.671113478535353636e+01 3.579904513888888573e+01
4.587519728535353636e+01 8.673204703282827666e+01 3.579707228535353636e+01
4.589295296717171624e+01 8.676274463383838054e+01 3.580299084595959869e+01
4.587728851010101039e+01 8.679490214646465063e+01 3.578953598484848442e+01
4.588245738636363313e+01 8.678744476010101039e+01 3.576755839646464352e+01
4.587697285353535648e+01 8.682015467171717660e+01 3.577233270202020066e+01
4.587448705808080973e+01 8.685649463383838054e+01 3.575706281565656752e+01
4.589571496212121104e+01 8.689650410353534937e+01 3.575303819444444287e+01
4.594842960858586167e+01 8.694448390151515582e+01 3.575067077020202078e+01
4.594266887626262275e+01 8.699001736111111427e+01 3.574159564393939092e+01
4.598962279040404155e+01 8.705922506313130782e+01 3.574640940656565391e+01
4.598279671717171624e+01 8.710637626262625588e+01 3.576941287878787534e+01
4.597604955808080973e+01 8.713813920454545325e+01 3.571989425505050519e+01
4.586375473484848442e+01 8.701148200757575069e+01 3.556072443181817988e+01
4.581526199494949481e+01 8.687255366161616621e+01 3.546109532828283051e+01
4.576846590909090651e+01 8.677193813131313505e+01 3.549652777777777857e+01
4.583203125000000000e+01 8.672234059343433898e+01 3.556246054292929415e+01
4.578255208333333570e+01 8.670348011363635976e+01 3.562156723484848442e+01
4.578965435606060908e+01 8.666007733585858830e+01 3.565581597222222143e+01
4.578610321969696884e+01 8.664595170454545325e+01 3.566931029040404155e+01
4.580105744949494806e+01 8.664528093434343248e+01 3.569184027777777857e+01
4.579734848484848442e+01 8.663273358585858830e+01 3.571338383838384090e+01
4.578188131313131493e+01 8.660763888888888573e+01 3.569113005050505194e+01
4.579758522727272663e+01 8.658514835858585457e+01 3.571630366161615910e+01
4.582003630050505194e+01 8.655630523989898961e+01 3.572786458333333570e+01
4.578030303030303116e+01 8.657196969696970257e+01 3.572837752525252597e+01
4.585160195707070585e+01 8.658502998737374412e+01 3.579352114898989612e+01
4.585132575757575779e+01 8.661000631313130782e+01 3.581344696969696884e+01
4.585503472222222143e+01 8.662886679292928704e+01 3.582473169191919027e+01
4.584469696969696884e+01 8.666429924242424931e+01 3.585037878787878896e+01
4.586000631313131493e+01 8.669176136363635976e+01 3.585606060606060908e+01
4.585582386363636687e+01 8.671141098484848442e+01 3.585108901515151558e+01
4.591445707070707272e+01 8.675078914141414543e+01 3.584943181818182012e+01
4.590092329545454675e+01 8.677608112373737015e+01 3.583984375000000000e+01
4.591883680555555713e+01 8.681182922979797922e+01 3.582824337121212466e+01
4.590727588383838054e+01 8.685598169191919737e+01 3.583199179292929415e+01
4.596350220959595845e+01 8.689610953282827666e+01 3.582997948232323182e+01
4.595726799242424221e+01 8.695726799242424931e+01 3.582374526515151558e+01
4.599790877525252597e+01 8.699080650252524549e+01 3.583092645202020066e+01
4.599589646464646364e+01 8.703472222222222854e+01 3.583080808080808310e+01
4.603495896464646364e+01 8.709919507575757791e+01 3.581731376262626299e+01
4.599206912878787534e+01 8.709260574494949481e+01 3.576621685606060908e+01
4.588557449494949481e+01 8.693781565656566102e+01 3.560432449494949481e+01
4.578882575757575779e+01 8.679529671717172334e+01 3.552572601010101039e+01
4.577876420454545325e+01 8.671863162878787534e+01 3.555669981060606233e+01
4.577016256313131493e+01 8.667009943181818699e+01 3.563364109848485128e+01
4.577647569444444287e+01 8.664768781565656752e+01 3.569913983585858830e+01
4.581139520202020066e+01 8.660842803030303116e+01 3.572601010101010388e+01
4.579225852272727337e+01 8.659923453282827666e+01 3.574159564393939092e+01
4.578989109848485128e+01 8.661217645202020776e+01 3.575327493686868507e+01
4.582915088383838054e+01 8.661292613636364024e+01 3.576838699494949481e+01
4.582721748737373701e+01 8.658968592171717660e+01 3.577608112373737725e+01
4.580598958333333570e+01 8.656451231060606233e+01 3.577363478535353636e+01
4.575434027777777857e+01 8.648350694444444287e+01 3.576617739898989612e+01
4.579774305555555713e+01 8.650623421717172334e+01 3.579237689393939092e+01
4.580650252525252597e+01 8.651010101010101039e+01 3.582102272727272663e+01
4.581238162878787534e+01 8.653397253787878185e+01 3.584868213383838054e+01
4.585120738636363313e+01 8.656143465909090651e+01 3.586699021464646364e+01
4.583869949494949481e+01 8.658285984848484418e+01 3.585164141414141170e+01
4.586446496212121104e+01 8.660688920454545325e+01 3.585373263888888573e+01
4.587590751262626299e+01 8.664169034090909349e+01 3.585854640151514872e+01
4.587993213383838054e+01 8.667191445707071296e+01 3.584378945707070585e+01
4.587839330808080973e+01 8.668978851010101039e+01 3.585250946969696884e+01
4.587105429292929415e+01 8.671101641414141170e+01 3.584595959595959869e+01
4.588036616161615910e+01 8.674258207070707272e+01 3.583933080808080973e+01
4.589094065656565391e+01 8.678645833333332860e+01 3.582086489898989612e+01
4.588920454545454675e+01 8.680602904040404155e+01 3.581013257575757791e+01
4.591169507575757791e+01 8.687129103535353636e+01 3.581226325757575779e+01
4.596949968434343248e+01 8.691473327020202078e+01 3.582366635101010388e+01
4.588754734848485128e+01 8.692700441919191690e+01 3.577612058080808310e+01
4.577915877525252597e+01 8.674648832070707272e+01 3.557855902777777857e+01
4.573978061868687206e+01 8.658858112373737015e+01 3.554233743686868507e+01
4.568817077020202078e+01 8.647131470959595845e+01 3.556538036616161946e+01
4.569452335858586167e+01 8.638076073232323893e+01 3.562760416666666430e+01
4.573031092171716949e+01 8.636383364898989612e+01 3.572257733585858830e+01
4.571796085858586167e+01 8.633948863636364024e+01 3.576294191919191690e+01
4.570580808080808310e+01 8.630445075757575069e+01 3.579987373737373701e+01
4.570391414141413833e+01 8.625268308080808310e+01 3.581739267676767469e+01
4.568714488636363313e+01 8.621255523989898961e+01 3.583581912878787534e+01
4.567803030303030454e+01 8.618718434343433898e+01 3.584674873737373701e+01
4.563604797979797922e+01 8.613289141414141170e+01 3.584075126262626299e+01
4.561702967171716949e+01 8.610172032828282340e+01 3.585961174242424221e+01
4.564267676767676818e+01 8.607796717171717660e+01 3.588667929292929415e+01
4.568442234848485128e+01 8.604916351010101039e+01 3.593205492424242209e+01
4.568146306818182012e+01 8.607619160353534937e+01 3.595056029040404155e+01
4.571342329545454675e+01 8.608211016414141170e+01 3.596815814393939092e+01
4.570048137626262275e+01 8.610657354797979224e+01 3.598520359848485128e+01
4.569464172979797922e+01 8.613293087121212466e+01 3.598583491161615910e+01
4.572928503787878896e+01 8.615810448232323893e+01 3.597013099747474740e+01
4.573050820707070585e+01 8.616769255050505194e+01 3.596882891414141170e+01
4.575658933080808310e+01 8.619266887626262985e+01 3.596097695707070585e+01
4.575173611111111427e+01 8.624652777777777146e+01 3.596938131313131493e+01
4.574072758838384090e+01 8.625966698232323893e+01 3.597068339646464352e+01
4.577300347222222143e+01 8.629352114898989612e+01 3.596681660353535648e+01
4.576570391414141170e+01 8.632757260101010388e+01 3.596914457070707272e+01
4.575745738636363313e+01 8.636367582070707272e+01 3.594732481060606233e+01
4.582031250000000000e+01 8.641816603535353636e+01 3.594057765151514872e+01
4.581411773989898961e+01 8.647163036616161946e+01 3.593580334595959869e+01
4.582362689393939092e+01 8.649471275252524549e+01 3.591295770202020066e+01
4.572687815656565391e+01 8.637539457070707272e+01 3.576570391414141170e+01
4.565242266414141170e+01 8.617136205808080263e+01 3.565842013888888573e+01
4.556565656565656752e+01 8.601625631313130782e+01 3.567376893939393767e+01
4.554967645202020066e+01 8.591678503787878185e+01 3.575990372474747403e+01
4.554679608585858830e+01 8.585503472222222854e+01 3.584635416666666430e+01
4.554738794191919027e+01 8.580385890151515582e+01 3.591560132575757791e+01
4.555973800505050519e+01 8.574676452020202078e+01 3.595604482323232531e+01
4.552698863636363313e+01 8.565656565656566102e+01 3.598248106060606233e+01
4.553428819444444287e+01 8.562062026515151558e+01 3.601945233585858830e+01
4.555630523989898961e+01 8.558013731060606233e+01 3.603468276515151558e+01
4.553196022727272663e+01 8.553779987373737015e+01 3.604742739898989612e+01
4.553835227272727337e+01 8.548800505050505194e+01 3.608349116161615910e+01
4.550587910353535648e+01 8.543927556818181301e+01 3.610073390151514872e+01
4.548741319444444287e+01 8.542617582070707272e+01 3.612882733585858830e+01
4.552564709595959869e+01 8.541706123737374412e+01 3.616311553030303116e+01
4.550138099747474740e+01 8.545150726010101039e+01 3.619440498737373701e+01
4.550587910353535648e+01 8.545063920454545325e+01 3.619132733585858830e+01
4.552880366161615910e+01 8.545983270202020776e+01 3.620572916666666430e+01
4.558357007575757791e+01 8.548192866161616621e+01 3.620557133838384090e+01
4.557327178030303116e+01 8.551534880050505194e+01 3.619906092171716949e+01
4.556321022727272663e+01 8.555721275252524549e+01 3.621583017676767469e+01
4.561608270202020066e+01 8.558625315656566102e+01 3.622687815656565391e+01
4.558439867424242209e+01 8.562085700757575069e+01 3.622518150252525260e+01
4.560361426767676818e+01 8.564307133838383379e+01 3.621472537878787534e+01
4.562941919191919027e+01 8.569839015151515582e+01 3.620044191919191690e+01
4.565834122474747403e+01 8.573283617424242209e+01 3.619716698232323182e+01
4.566177398989898961e+01 8.578298611111111427e+01 3.619823232323232531e+01
4.565913036616161946e+01 8.583195233585858830e+01 3.619906092171716949e+01
4.565001578282828376e+01 8.587428977272726627e+01 3.618615845959595845e+01
4.567660984848485128e+01 8.595280934343433898e+01 3.618150252525252597e+01
4.567783301767676818e+01 8.597281407828282340e+01 3.613332544191919027e+01
4.560858585858586167e+01 8.586221590909090651e+01 3.600426136363636687e+01
4.546030618686868507e+01 8.563533775252524549e+01 3.586024305555555713e+01
4.541485164141413833e+01 8.542179608585858830e+01 3.589417613636363313e+01
4.544578598484848442e+01 8.533325441919191690e+01 3.600291982323232531e+01
4.541094539141413833e+01 8.527110953282827666e+01 3.609576231060606233e+01
4.542104640151514872e+01 8.523086332070707272e+01 3.615068655303030454e+01
4.541635101010101039e+01 8.516382575757575069e+01 3.618702651515151558e+01
4.543422506313131493e+01 8.509710385101010388e+01 3.621942077020202078e+01
4.540467171717171624e+01 8.506013257575757791e+01 3.624542297979797922e+01
4.540924873737373701e+01 8.501278409090909349e+01 3.625789141414141170e+01
4.537354008838384090e+01 8.495387468434343248e+01 3.626826862373737725e+01
4.535266729797979934e+01 8.489922664141414543e+01 3.629395517676767469e+01
4.534864267676767469e+01 8.483364898989898961e+01 3.631439393939393767e+01
4.531238162878787534e+01 8.480654198232323893e+01 3.633416193181817988e+01
4.530228061868687206e+01 8.481238162878787534e+01 3.636257102272727337e+01
4.536876578282828376e+01 8.485124684343433898e+01 3.638912563131312794e+01
4.537405303030303116e+01 8.488446969696970257e+01 3.639299242424242209e+01
4.537381628787878896e+01 8.491343118686869218e+01 3.641785037878787534e+01
4.538024779040404155e+01 8.494353693181818699e+01 3.642759627525252597e+01
4.544077493686868507e+01 8.496002998737374412e+01 3.641804766414141170e+01
4.541382575757575779e+01 8.498895202020202078e+01 3.643465909090909349e+01
4.542680713383838054e+01 8.503523516414141170e+01 3.642380839646464352e+01
4.543150252525252597e+01 8.506328914141414543e+01 3.639772727272727337e+01
4.543031881313131493e+01 8.508798926767676107e+01 3.638849431818182012e+01
4.549100378787878896e+01 8.516145833333332860e+01 3.640372474747474740e+01
4.547975852272727337e+01 8.517941130050505194e+01 3.637874842171716949e+01
4.548808396464646364e+01 8.524881628787878185e+01 3.638297032828283051e+01
4.548914930555555713e+01 8.530512152777777146e+01 3.637898516414141170e+01
4.553180239898989612e+01 8.535061553030303116e+01 3.636418876262626299e+01
4.552103061868687206e+01 8.540802556818181301e+01 3.636667455808080973e+01
4.556766887626262275e+01 8.546160827020202078e+01 3.633597695707070585e+01
4.544965277777777857e+01 8.532149621212121815e+01 3.618402777777777857e+01
4.536908143939393767e+01 8.511923926767676107e+01 3.609193497474747403e+01
4.531845801767676818e+01 8.493730271464646364e+01 3.614863478535353636e+01
4.529371843434343248e+01 8.486063762626262985e+01 3.624021464646464352e+01
4.533349116161615910e+01 8.484090909090909349e+01 3.633349116161615910e+01
4.536797664141413833e+01 8.482709911616161946e+01 3.638975694444444287e+01
4.534173768939393767e+01 8.477339804292928704e+01 3.641844223484848442e+01
4.536047979797979934e+01 8.476325757575757791e+01 3.643166035353535648e+01
4.533183396464646364e+01 8.475576073232323893e+01 3.642511047979797922e+01
4.533637152777777857e+01 8.472068339646465063e+01 3.642775410353535648e+01
4.528637941919191690e+01 8.466358901515151558e+01 3.642053345959595845e+01
4.526302083333333570e+01 8.459540719696970257e+01 3.643252840909090651e+01
4.529399463383838054e+01 8.458502998737374412e+01 3.646429135101010388e+01
4.530602904040404155e+01 8.458712121212121815e+01 3.650946969696969546e+01
4.534011994949494806e+01 8.462547348484848442e+01 3.655634469696969546e+01
4.532488952020202078e+01 8.463107638888888573e+01 3.656983901515151558e+01
4.530993529040404155e+01 8.467546559343433898e+01 3.653136837121212466e+01
4.534465751262626299e+01 8.472628630050505194e+01 3.655362215909090651e+01
4.535969065656565391e+01 8.475347222222222854e+01 3.654466540404040131e+01
4.537452651515151558e+01 8.478140782828282340e+01 3.654214015151514872e+01
4.538194444444444287e+01 8.478756313131313505e+01 3.654434974747474740e+01
4.538746843434343248e+01 8.481770833333332860e+01 3.654671717171716949e+01
4.542542613636363313e+01 8.486923926767676107e+01 3.654521780303030454e+01
4.541287878787878896e+01 8.491003787878787534e+01 3.652935606060606233e+01
4.542017834595959869e+01 8.493785511363635976e+01 3.653981218434343248e+01
4.544566761363636687e+01 8.501053503787878185e+01 3.652979008838384090e+01
4.547553661616161946e+01 8.507181186868686495e+01 3.653977272727272663e+01
4.549589646464646364e+01 8.512894570707071296e+01 3.652398989898989612e+01
4.550027619949494806e+01 8.514847695707071296e+01 3.647628630050505194e+01
4.539709595959595845e+01 8.502541035353534937e+01 3.634043560606060908e+01
4.524656723484848442e+01 8.479533617424242209e+01 3.626724273989898961e+01
4.523587436868687206e+01 8.462507891414141170e+01 3.630263573232323182e+01
4.522790404040404155e+01 8.453772095959595845e+01 3.639046717171716949e+01
4.527864583333333570e+01 8.449850063131313505e+01 3.646172664141413833e+01
4.526538825757575779e+01 8.446298926767676107e+01 3.650418244949494806e+01
4.524270044191919027e+01 8.442893781565656752e+01 3.652979008838384090e+01
4.523658459595959869e+01 8.441461489898989612e+01 3.655571338383838054e+01
4.526455965909090651e+01 8.442065183080808310e+01 3.656380208333333570e+01
4.522971906565656752e+01 8.438707386363635976e+01 3.656005366161615910e+01
4.521133207070707272e+01 8.433428030303029743e+01 3.657023358585858830e+01
4.520813604797979934e+01 8.428042140151515582e+01 3.658881786616161946e+01
4.526045612373737725e+01 8.426519097222222854e+01 3.662172506313131493e+01
4.520963541666666430e+01 8.427765940656566102e+01 3.664634627525252597e+01
4.524195075757575779e+01 8.429513888888888573e+01 3.667045454545454675e+01
4.523946496212121104e+01 8.432737531565656752e+01 3.667728061868687206e+01
4.525619476010101039e+01 8.436051925505050519e+01 3.667775410353535648e+01
4.528034248737373701e+01 8.441938920454545325e+01 3.669858743686868507e+01
4.529056186868687206e+01 8.447632575757575069e+01 3.667250631313131493e+01
4.532023358585858830e+01 8.451988636363635976e+01 3.668970959595959869e+01
4.532982165404040131e+01 8.457303503787878185e+01 3.666473327020202078e+01
4.534161931818182012e+01 8.460550820707071296e+01 3.668016098484848442e+01
4.536643781565656752e+01 8.464421559343433898e+01 3.666994160353535648e+01
4.537574968434343248e+01 8.467783301767676107e+01 3.667262468434343248e+01
4.540759154040404155e+01 8.472435290404040131e+01 3.666074810606060908e+01
4.540664457070707272e+01 8.479158775252524549e+01 3.666895517676767469e+01
4.544022253787878896e+01 8.485057607323231821e+01 3.665455334595959869e+01
4.542747790404040131e+01 8.491785037878787534e+01 3.663375946969696884e+01
4.547088068181817988e+01 8.497230113636364024e+01 3.662444760101010388e+01
4.537425031565656752e+01 8.486509627525252597e+01 3.648378314393939092e+01
4.526199494949494806e+01 8.461174242424242209e+01 3.636111111111111427e+01
4.516248421717171624e+01 8.437918244949494806e+01 3.639354482323232531e+01
4.517002051767676818e+01 8.426519097222222854e+01 3.646137152777777857e+01
4.516236584595959869e+01 8.422249842171717660e+01 3.655709438131312794e+01
4.515680239898989612e+01 8.416942866161616621e+01 3.661055871212121104e+01
4.515108112373737725e+01 8.411288667929292728e+01 3.663845486111111427e+01
4.517388731060606233e+01 8.405472695707071296e+01 3.664910827020202078e+01
