5.305709438131312794e+01 6.892325599747475451e+01 5.937511837121212466e+01
5.301037720959595845e+01 6.893667140151515582e+01 5.950501104797979934e+01
5.314117739898989612e+01 6.903432765151515582e+01 5.945588699494949481e+01
5.327252998737373701e+01 6.911801609848484418e+01 5.955267518939393767e+01
5.328736584595959869e+01 6.921397569444444287e+01 5.954857165404040131e+01
5.316915246212121104e+01 6.930299084595959869e+01 5.955267518939393767e+01
5.319677241161615910e+01 6.917230902777777146e+01 5.949790877525252597e+01
5.286699021464646364e+01 6.885531092171717660e+01 5.904786142676767469e+01
5.271796085858586167e+01 6.859217171717172334e+01 5.886111111111111427e+01
5.265794665404040131e+01 6.845924084595959869e+01 5.883139993686868507e+01
5.267885890151514872e+01 6.841844223484848442e+01 5.883558238636363313e+01
5.266828440656565391e+01 6.837235637626262985e+01 5.886399147727272663e+01
5.262594696969696884e+01 6.834816919191919737e+01 5.884848484848485128e+01
5.265459280303030454e+01 6.835819128787878185e+01 5.890475063131312794e+01
5.269010416666666430e+01 6.841122159090909349e+01 5.896377840909090651e+01
5.269385258838384090e+01 6.842854324494949481e+01 5.897794349747474740e+01
5.268442234848485128e+01 6.843884154040404155e+01 5.897356376262626299e+01
5.270490056818182012e+01 6.845158617424242209e+01 5.899672506313131493e+01
5.274605429292929415e+01 6.847585227272726627e+01 5.902446338383838054e+01
5.278484059343434609e+01 6.852979008838383379e+01 5.905946180555555713e+01
5.279612531565656752e+01 6.857721748737374412e+01 5.909205334595959869e+01
5.282765151515151558e+01 6.862357954545454675e+01 5.911410984848485128e+01
5.286063762626262275e+01 6.868939393939393767e+01 5.915530303030303116e+01
5.287551294191919027e+01 6.874877683080808310e+01 5.919401041666666430e+01
5.293789457070707272e+01 6.880721275252524549e+01 5.922182765151514872e+01
5.295655776515151558e+01 6.888474589646465063e+01 5.925374842171716949e+01
5.295505839646464352e+01 6.895016571969696884e+01 5.926992582070707272e+01
5.301523042929292728e+01 6.903101325757575069e+01 5.933199179292929415e+01
5.308546401515151558e+01 6.914496527777777146e+01 5.939180871212121104e+01
5.314271622474747403e+01 6.921657986111111427e+01 5.943895991161615910e+01
5.313821811868687206e+01 6.928594539141414543e+01 5.945324337121212466e+01
5.281794507575757791e+01 6.900733901515151558e+01 5.920999053030303116e+01
5.283775252525252597e+01 6.908396464646465063e+01 5.925726010101010388e+01
5.284185606060606233e+01 6.914535984848484418e+01 5.930113636363636687e+01
5.291291824494949481e+01 6.923820233585858830e+01 5.933068970959595845e+01
5.284106691919191690e+01 6.913226010101010388e+01 5.919681186868687206e+01
5.252706755050505194e+01 6.875576073232323893e+01 5.879316603535353636e+01
5.234509154040404155e+01 6.839386047979797922e+01 5.854695391414141170e+01
5.224096433080808310e+01 6.823686079545454675e+01 5.849270044191919027e+01
5.221796085858586167e+01 6.814977904040404155e+01 5.851136363636363313e+01
5.218189709595959869e+01 6.806052714646465063e+01 5.848429608585858830e+01
5.217199337121212466e+01 6.800658933080808310e+01 5.850232796717171624e+01
5.215392203282828376e+01 6.799546243686869218e+01 5.853002683080808310e+01
5.218548768939393767e+01 6.800414299242424931e+01 5.856364425505050519e+01
5.221938131313131493e+01 6.801388888888888573e+01 5.860527146464646364e+01
5.220422979797979934e+01 6.801594065656566102e+01 5.858791035353535648e+01
5.221235795454545325e+01 6.800102588383838054e+01 5.858877840909090651e+01
5.222818023989898961e+01 6.800532670454545325e+01 5.860128630050505194e+01
5.224696180555555713e+01 6.803973327020202078e+01 5.863395675505050519e+01
5.229111426767676818e+01 6.808499053030303116e+01 5.868000315656565391e+01
5.230299084595959869e+01 6.816536458333332860e+01 5.872249842171716949e+01
5.233585858585858830e+01 6.823327020202020776e+01 5.876815025252525260e+01
5.238064236111111427e+01 6.830283301767676107e+01 5.880235953282828376e+01
5.241978377525252597e+01 6.838521938131313505e+01 5.885018150252525260e+01
5.246456755050505194e+01 6.844468118686869218e+01 5.889007260101010388e+01
5.248551925505050519e+01 6.850114425505050519e+01 5.892270359848485128e+01
5.251601957070707272e+01 6.856904987373737015e+01 5.894215593434343248e+01
5.254020675505050519e+01 6.862275094696970257e+01 5.897565498737373701e+01
5.259394728535353636e+01 6.870332228535353636e+01 5.899230587121212466e+01
5.261091382575757791e+01 6.876590119949494806e+01 5.903168402777777857e+01
5.262997159090909349e+01 6.885850694444444287e+01 5.908435921717171624e+01
5.268876262626262275e+01 6.895217803030303116e+01 5.913825757575757791e+01
5.269243213383838054e+01 6.903744476010101039e+01 5.913971748737373701e+01
5.275895675505050519e+01 6.911107165404040131e+01 5.919345801767676818e+01
5.275836489898989612e+01 6.912263257575757791e+01 5.920454545454545325e+01
5.256849747474747403e+01 6.890277777777777146e+01 5.891256313131312794e+01
5.226085069444444287e+01 6.844330018939393767e+01 5.849159564393939092e+01
5.206849747474747403e+01 6.812752525252524549e+01 5.830523989898989612e+01
5.203507733585858830e+01 6.799041193181818699e+01 5.829659880050505194e+01
5.202103061868687206e+01 6.793359375000000000e+01 5.834094854797979934e+01
5.203424873737373701e+01 6.786742424242424931e+01 5.833049242424242209e+01
5.199704071969696884e+01 6.781979955808080263e+01 5.833242582070707272e+01
5.203977272727272663e+01 6.784895833333332860e+01 5.837705176767676818e+01
5.205267518939393767e+01 6.788632417929292728e+01 5.844109059343434609e+01
5.204158775252525260e+01 6.787807765151515582e+01 5.844199810606060908e+01
5.201613794191919027e+01 6.785026041666667140e+01 5.842743844696969546e+01
5.203854955808080973e+01 6.784442077020202078e+01 5.841481218434343248e+01
5.205894886363636687e+01 6.785598169191919737e+01 5.844073547979797922e+01
5.208143939393939092e+01 6.788415404040404155e+01 5.846227904040404155e+01
5.209986584595959869e+01 6.793840751262625588e+01 5.851069286616161946e+01
5.213723169191919027e+01 6.799045138888888573e+01 5.854379734848485128e+01
5.218248895202020066e+01 6.805164930555555713e+01 5.859599905303030454e+01
5.221500157828283051e+01 6.810941445707071296e+01 5.861746369949494806e+01
5.222896938131312794e+01 6.817230902777777146e+01 5.865510574494949481e+01
5.228385416666666430e+01 6.823540088383838054e+01 5.867290088383838054e+01
5.231309185606060908e+01 6.831972064393939092e+01 5.872865372474747403e+01
5.235677083333333570e+01 6.836008522727273373e+01 5.875465593434343248e+01
5.241205018939393767e+01 6.842909564393939092e+01 5.879257417929292728e+01
5.243868371212121104e+01 6.849297664141414543e+01 5.884651199494949481e+01
5.246736900252525260e+01 6.860215435606060908e+01 5.887819602272727337e+01
5.255520044191919027e+01 6.865589488636364024e+01 5.891220801767676818e+01
5.258116319444444287e+01 6.876045612373737015e+01 5.895095486111111427e+01
5.254423137626262275e+01 6.872841698232323893e+01 5.887693339646464352e+01
5.225666824494949481e+01 6.835973011363635976e+01 5.845190183080808310e+01
5.199127998737373701e+01 6.794440498737374412e+01 5.817372948232323182e+01
5.181956281565656752e+01 6.766583806818181301e+01 5.802931660353535648e+01
5.175800978535353636e+01 6.755141256313130782e+01 5.802552872474747403e+01
5.176720328282828376e+01 6.750694444444444287e+01 5.804482323232323182e+01
5.178503787878787534e+01 6.747443181818181301e+01 5.807654671717171624e+01
5.175974589646464352e+01 6.746397569444444287e+01 5.810365372474747403e+01
5.181585385101010388e+01 6.749435763888888573e+01 5.812930082070707272e+01
5.182540246212121104e+01 6.751511205808080263e+01 5.816646938131312794e+01
5.183313604797979934e+01 6.749506786616161946e+01 5.815889362373737725e+01
5.178215751262626299e+01 6.746839488636364024e+01 5.811454387626262275e+01
5.181151357323232531e+01 6.745182291666667140e+01 5.811533301767676818e+01
5.178574810606060908e+01 6.747514204545454675e+01 5.814433396464646364e+01
5.188628472222222143e+01 6.755800189393939092e+01 5.821425189393939092e+01
5.191883680555555713e+01 6.763585069444444287e+01 5.826416508838384090e+01
5.198701862373737725e+01 6.770040246212121815e+01 5.831766887626262275e+01
5.198496685606060908e+01 6.778247316919191690e+01 5.837543402777777857e+01
5.204257417929292728e+01 6.782650726010101039e+01 5.838727114898989612e+01
5.202446338383838054e+01 6.787531565656566102e+01 5.838920454545454675e+01
5.208147885101010388e+01 6.793012152777777146e+01 5.842917455808080973e+01
5.209481534090909349e+01 6.798780776515151558e+01 5.844866635101010388e+01
5.214658301767676818e+01 6.808187342171717660e+01 5.850816761363636687e+01
5.221070075757575779e+01 6.816193181818181301e+01 5.855413510101010388e+01
5.221930239898989612e+01 6.825023674242424931e+01 5.860976957070707272e+01
5.232149621212121104e+01 6.839346590909090651e+01 5.868481691919191690e+01
5.239208491161615910e+01 6.847952178030303116e+01 5.874609375000000000e+01
5.244093276515151558e+01 6.857224589646465063e+01 5.878152619949494806e+01
5.233960700757575779e+01 6.852189867424242209e+01 5.867199337121212466e+01
5.200284090909090651e+01 6.808822601010101039e+01 5.820186237373737725e+01
5.167830650252525260e+01 6.758802872474747403e+01 5.783534564393939092e+01
5.155239898989898961e+01 6.729135101010101039e+01 5.773563762626262275e+01
5.145931976010101039e+01 6.713308869949494806e+01 5.768927556818182012e+01
5.145576862373737725e+01 6.706088226010101039e+01 5.770103377525252597e+01
5.143682922979797922e+01 6.698465119949494806e+01 5.768588226010101039e+01
5.142929292929292728e+01 6.694270833333332860e+01 5.769602272727272663e+01
5.145344065656565391e+01 6.696622474747475451e+01 5.772506313131312794e+01
5.148839962121212466e+01 6.697608901515151558e+01 5.775954861111111427e+01
5.149262152777777857e+01 6.696673768939393767e+01 5.776156092171716949e+01
5.144696969696969546e+01 6.694476010101010388e+01 5.774889520202020066e+01
5.146421243686868507e+01 6.695158617424242209e+01 5.776771622474747403e+01
5.146460700757575779e+01 6.698622948232323893e+01 5.779431029040404155e+01
5.154419191919191690e+01 6.705429292929292728e+01 5.784864267676767469e+01
5.157114109848485128e+01 6.713032670454545325e+01 5.790415877525252597e+01
5.163166824494949481e+01 6.719685132575757791e+01 5.796484375000000000e+01
5.168714488636363313e+01 6.725864109848484418e+01 5.802205650252525260e+01
5.169653566919191690e+01 6.731143465909090651e+01 5.804801925505050519e+01
5.171973642676767469e+01 6.737425031565656752e+01 5.808258364898989612e+01
5.181510416666666430e+01 6.746504103535353636e+01 5.813723169191919027e+01
5.183767361111111427e+01 6.757031250000000000e+01 5.819073547979797922e+01
5.190597380050505194e+01 6.763987531565656752e+01 5.822999526515151558e+01
5.195225694444444287e+01 6.773650568181818699e+01 5.827911931818182012e+01
5.201424400252525260e+01 6.781238162878787534e+01 5.832169349747474740e+01
5.202383207070707272e+01 6.790782828282827666e+01 5.838699494949494806e+01
5.208570075757575779e+01 6.801388888888888573e+01 5.844839015151514872e+01
5.212448705808080973e+01 6.810160195707071296e+01 5.848985953282828376e+01
5.217491319444444287e+01 6.820158617424242209e+01 5.851818970959595845e+01
5.200043402777777857e+01 6.800958806818181301e+01 5.829273200757575779e+01
5.164831912878787534e+01 6.750122316919191690e+01 5.780725220959595845e+01
5.136482007575757791e+01 6.700086805555555713e+01 5.749881628787878896e+01
5.121831597222222143e+01 6.675161773989898961e+01 5.739066445707070585e+01
5.115238320707070585e+01 6.663423295454545325e+01 5.737381628787878896e+01
5.117207228535353636e+01 6.651298137626262985e+01 5.735262784090909349e+01
5.105413510101010388e+01 6.639204545454545325e+01 5.729513888888888573e+01
5.110669191919191690e+01 6.637626262626262985e+01 5.732370580808080973e+01
5.111363636363636687e+01 6.640546085858585457e+01 5.736458333333333570e+01
5.117388731060606233e+01 6.643604008838383379e+01 5.740510574494949481e+01
5.117167771464646364e+01 6.642593907828282340e+01 5.740605271464646364e+01
5.117037563131312794e+01 6.641785037878787534e+01 5.739338699494949481e+01
5.115980113636363313e+01 6.642353219696970257e+01 5.740490845959595845e+01
5.120604482323232531e+01 6.645462436868686495e+01 5.743379103535353636e+01
5.120056029040404155e+01 6.649901357323231821e+01 5.748780776515151558e+01
5.127473958333333570e+01 6.660112847222222854e+01 5.755756786616161946e+01
5.130078125000000000e+01 6.666946811868686495e+01 5.758960700757575779e+01
5.137973484848485128e+01 6.673390151515151558e+01 5.764488636363636687e+01
5.144562815656565391e+01 6.686197916666667140e+01 5.773871527777777857e+01
5.147624684343434609e+01 6.691927083333332860e+01 5.777264835858586167e+01
5.150019728535353636e+01 6.701771622474747403e+01 5.781190814393939092e+01
5.152544981060606233e+01 6.709378945707071296e+01 5.785404829545454675e+01
5.162685448232323182e+01 6.723954387626262985e+01 5.793035827020202078e+01
5.168532986111111427e+01 6.731474905303029743e+01 5.798473011363636687e+01
5.173157354797979934e+01 6.741291824494949481e+01 5.804959753787878896e+01
5.180729166666666430e+01 6.749084595959595845e+01 5.810684974747474740e+01
5.185550820707070585e+01 6.759730113636364024e+01 5.818931502525252597e+01
5.191122159090909349e+01 6.771646148989898961e+01 5.824834280303030454e+01
5.196819760101010388e+01 6.779395517676768179e+01 5.827485795454545325e+01
5.179403409090909349e+01 6.760684974747475451e+01 5.801278409090909349e+01
5.135148358585858830e+01 6.708459595959595845e+01 5.750078914141413833e+01
5.113214172979797922e+01 6.662677556818181301e+01 5.723615056818182012e+01
5.101736111111111427e+01 6.639977904040404155e+01 5.715909090909090651e+01
5.097877209595959869e+01 6.629900568181818699e+01 5.713928345959595845e+01
5.094712752525252597e+01 6.622569444444444287e+01 5.713573232323232531e+01
5.098401988636363313e+01 6.617830650252524549e+01 5.714910827020202078e+01
5.099356849747474740e+01 6.618943339646465063e+01 5.718785511363636687e+01
5.101357323232323182e+01 6.621085858585858830e+01 5.723342803030303116e+01
5.098717645202020066e+01 6.618919665404040131e+01 5.722218276515151558e+01
5.101795296717171624e+01 6.617309816919191690e+01 5.721571180555555713e+01
5.100599747474747403e+01 6.616587752525252597e+01 5.720801767676767469e+01
5.102864583333333570e+01 6.619168244949494806e+01 5.722956123737373701e+01
5.107741477272727337e+01 6.624439709595959869e+01 5.729000946969696884e+01
5.107240372474747403e+01 6.630520044191919737e+01 5.731640625000000000e+01
5.110629734848485128e+01 6.636813446969696884e+01 5.737634154040404155e+01
5.116812657828283051e+01 6.644337910353534937e+01 5.742223011363636687e+01
5.122024936868687206e+01 6.654395517676768179e+01 5.749818497474747403e+01
5.127324021464646364e+01 6.661809501262625588e+01 5.755275410353535648e+01
5.132252209595959869e+01 6.669625946969696884e+01 5.760913825757575779e+01
5.140384311868687206e+01 6.677047821969696884e+01 5.764137468434343248e+01
5.142700441919191690e+01 6.685882260101010388e+01 5.770588699494949481e+01
5.145486111111111427e+01 6.696038510101010388e+01 5.775899621212121104e+01
5.153270991161615910e+01 6.706522253787878185e+01 5.783384627525252597e+01
5.160286458333333570e+01 6.715905145202020776e+01 5.788916508838384090e+01
5.166579861111111427e+01 6.725923295454545325e+01 5.795935921717171624e+01
5.164220328282828376e+01 6.729008838383838054e+01 5.792108585858586167e+01
5.130772569444444287e+01 6.689863478535353636e+01 5.749569917929292728e+01
5.097829861111111427e+01 6.637807765151515582e+01 5.706999684343434609e+01
5.075220959595959869e+01 6.602809343434343248e+01 5.690009469696969546e+01
5.074806660353535648e+01 6.582193023989898961e+01 5.682634943181817988e+01
5.072766729797979934e+01 6.575560290404040131e+01 5.682646780303030454e+01
5.072557607323232531e+01 6.570600536616161946e+01 5.684457859848485128e+01
5.070403251262626299e+01 6.568903882575757791e+01 5.684607796717171624e+01
5.072439236111111427e+01 6.570545296717172334e+01 5.689800347222222143e+01
5.072494476010101039e+01 6.573188920454545325e+01 5.694053819444444287e+01
5.074112215909090651e+01 6.573449337121212466e+01 5.693162089646464352e+01
5.072589172979797922e+01 6.568185763888888573e+01 5.691765309343434609e+01
5.075102588383838054e+01 6.570478219696970257e+01 5.695257260101010388e+01
5.075639204545454675e+01 6.574644886363635976e+01 5.696725063131312794e+01
5.084619633838384090e+01 6.583214962121212466e+01 5.703480113636363313e+01
5.087409248737373701e+01 6.589871369949494806e+01 5.708479324494949481e+01
5.095280934343434609e+01 6.601483585858585457e+01 5.718213383838384090e+01
5.097013099747474740e+01 6.611959438131313505e+01 5.724554135101010388e+01
5.105796243686868507e+01 6.619985006313130782e+01 5.728997001262626299e+01
5.110467960858586167e+01 6.629107481060606233e+01 5.734520991161615910e+01
5.114476799242424221e+01 6.636825284090909349e+01 5.738324652777777857e+01
5.116686395202020066e+01 6.646373895202020776e+01 5.743848642676767469e+01
5.122995580808080973e+01 6.656739267676768179e+01 5.750978535353535648e+01
5.128282828282828376e+01 6.662531565656566102e+01 5.754450757575757791e+01
5.134947127525252597e+01 6.672447127525252597e+01 5.760373263888888573e+01
5.138265467171716949e+01 6.682978219696970257e+01 5.765901199494949481e+01
5.149692234848485128e+01 6.698508522727273373e+01 5.777375315656565391e+01
5.147143308080808310e+01 6.701357323232323893e+01 5.777446338383838054e+01
5.129872948232323182e+01 6.679778251262625588e+01 5.749554135101010388e+01
5.089180871212121104e+01 6.621961805555555713e+01 5.699423926767676818e+01
5.061166351010101039e+01 6.570778093434343248e+01 5.665064709595959869e+01
5.042313762626262275e+01 6.535637626262625588e+01 5.649763257575757791e+01
5.038131313131312794e+01 6.517424242424242209e+01 5.649731691919191690e+01
5.032417929292929415e+01 6.502714646464646364e+01 5.645454545454545325e+01
5.032512626262626299e+01 6.491556186868686495e+01 5.642171717171716949e+01
5.032875631313131493e+01 6.487705176767676107e+01 5.644286616161615910e+01
5.033834438131312794e+01 6.489800347222222854e+01 5.646949968434343248e+01
5.032591540404040131e+01 6.489551767676768179e+01 5.648169191919191690e+01
5.035187815656565391e+01 6.486939709595959869e+01 5.647861426767676818e+01
5.032994002525252597e+01 6.485345643939393767e+01 5.646409406565656752e+01
5.034982638888888573e+01 6.486403093434343248e+01 5.646235795454545325e+01
5.034663036616161946e+01 6.490281723484848442e+01 5.654423137626262275e+01
5.039725378787878896e+01 6.498137626262625588e+01 5.660637626262626299e+01
5.044700915404040131e+01 6.505196496212121815e+01 5.667633364898989612e+01
5.052698863636363313e+01 6.515798611111111427e+01 5.669286616161615910e+01
5.055563446969696884e+01 6.524171401515151558e+01 5.676412563131312794e+01
5.064697758838384090e+01 6.535215435606060908e+01 5.684252683080808310e+01
5.068675031565656752e+01 6.545521622474747403e+01 5.691639046717171624e+01
5.072920612373737725e+01 6.554075915404040131e+01 5.696168718434343248e+01
5.078192077020202078e+01 6.565581597222222854e+01 5.702324021464646364e+01
5.080133364898989612e+01 6.574135890151515582e+01 5.707548137626262275e+01
5.085894097222222143e+01 6.584568339646465063e+01 5.714240056818182012e+01
5.094211647727272663e+01 6.596531723484848442e+01 5.720521622474747403e+01
5.100635258838384090e+01 6.608195233585858830e+01 5.729139046717171624e+01
5.106853693181817988e+01 6.617080965909090651e+01 5.732390309343434609e+01
5.102398989898989612e+01 6.622095959595959869e+01 5.730808080808080973e+01
5.077249053030303116e+01 6.587428977272726627e+01 5.692574179292929415e+01
5.037934027777777857e+01 6.527012310606060908e+01 5.644673295454545325e+01
5.019294507575757791e+01 6.478148674242424931e+01 5.621077967171716949e+01
5.010736268939393767e+01 6.451345486111111427e+01 5.611856849747474740e+01
5.002537089646464352e+01 6.434418402777777146e+01 5.608992266414141170e+01
5.001625631313131493e+01 6.425473484848484418e+01 5.608364898989898961e+01
4.999246369949494806e+01 6.416891571969696884e+01 5.608431976010101039e+01
5.001282354797979934e+01 6.416923137626262985e+01 5.610610006313131493e+01
5.001128472222222143e+01 6.416863952020202078e+01 5.615001578282828376e+01
4.999562026515151558e+01 6.416339172979797922e+01 5.615281723484848442e+01
5.004206123737373701e+01 6.413612689393939092e+01 5.614607007575757791e+01
5.004407354797979934e+01 6.414066445707071296e+01 5.613798137626262275e+01
5.004332386363636687e+01 6.417668876262625588e+01 5.617463699494949481e+01
5.005137310606060908e+01 6.419404987373737015e+01 5.621251578282828376e+01
5.012870896464646364e+01 6.429032512626262985e+01 5.627391098484848442e+01
5.015715751262626299e+01 6.436312342171717660e+01 5.635523200757575779e+01
5.023820233585858830e+01 6.448188920454545325e+01 5.639650410353535648e+01
5.020951704545454675e+01 6.455168876262625588e+01 5.645241477272727337e+01
5.030066287878787534e+01 6.463494318181818699e+01 5.650189393939393767e+01
5.035870422979797922e+01 6.474459438131313505e+01 5.652505523989898961e+01
5.042949021464646364e+01 6.483716066919191690e+01 5.660215435606060908e+01
5.045213857323232531e+01 6.494045928030303116e+01 5.664169034090909349e+01
5.050185448232323182e+01 6.504083806818181301e+01 5.671334438131312794e+01
5.050359059343434609e+01 6.510665246212121815e+01 5.676337594696969546e+01
5.062389520202020066e+01 6.521906565656566102e+01 5.685621843434343248e+01
5.063443023989898961e+01 6.530488478535353636e+01 5.688443023989898961e+01
5.063766571969696884e+01 6.534947127525252597e+01 5.688987531565656752e+01
5.041043244949494806e+01 6.504663825757575069e+01 5.654963699494949481e+01
5.004742739898989612e+01 6.443205492424242209e+01 5.607441603535353636e+01
4.979904513888888573e+01 6.396145044191919027e+01 5.581072443181817988e+01
4.967629419191919027e+01 6.367029671717171624e+01 5.569444444444444287e+01
4.965877525252525260e+01 6.352225378787878896e+01 5.571164772727272663e+01
4.961047979797979934e+01 6.338936237373737725e+01 5.569239267676767469e+01
4.958155776515151558e+01 6.334181660353535648e+01 5.570071811868687206e+01
4.961825284090909349e+01 6.334000157828283051e+01 5.572762784090909349e+01
4.960696811868687206e+01 6.332161458333333570e+01 5.572833806818182012e+01
4.958479324494949481e+01 6.328034248737373701e+01 5.570726799242424221e+01
4.953215751262626299e+01 6.317593907828283051e+01 5.564942392676767469e+01
4.954900568181817988e+01 6.315143623737373701e+01 5.563360164141413833e+01
4.954774305555555713e+01 6.317053345959595845e+01 5.565301452020202078e+01
4.956609059343434609e+01 6.321571180555555713e+01 5.569661458333333570e+01
4.962223800505050519e+01 6.328196022727272663e+01 5.575291982323232531e+01
4.963600852272727337e+01 6.331735321969696884e+01 5.580046559343434609e+01
4.969341856060606233e+01 6.337934027777777857e+01 5.583704229797979934e+01
4.972581281565656752e+01 6.344961332070707272e+01 5.587590751262626299e+01
4.975414299242424221e+01 6.353144728535353636e+01 5.592459753787878896e+01
4.977967171717171624e+01 6.358838383838384090e+01 5.595643939393939092e+01
4.982169349747474740e+01 6.365897253787878896e+01 5.599309501262626299e+01
4.994917929292929415e+01 6.377935606060606233e+01 5.606739267676767469e+01
4.991998106060606233e+01 6.382607323232323182e+01 5.611726641414141170e+01
4.995127051767676818e+01 6.393122632575757791e+01 5.611288667929292728e+01
4.987945864898989612e+01 6.382027304292929415e+01 5.601424400252525260e+01
4.951503314393939092e+01 6.328334122474747403e+01 5.557879577020202078e+01
4.914977904040404155e+01 6.266824494949494806e+01 5.518450126262626299e+01
4.895205965909090651e+01 6.223583491161615910e+01 5.499988162878787534e+01
4.889461016414141170e+01 6.202907986111111427e+01 5.491875789141413833e+01
4.881904987373737725e+01 6.189133522727272663e+01 5.488139204545454675e+01
4.876653251262626299e+01 6.176306029040404155e+01 5.483881786616161946e+01
4.881321022727272663e+01 6.176238952020202078e+01 5.485235164141413833e+01
4.881952335858586167e+01 6.177738320707070585e+01 5.488865214646464352e+01
4.883558238636363313e+01 6.178649779040404155e+01 5.488261521464646364e+01
4.879853219696969546e+01 6.175939078282828376e+01 5.486766098484848442e+01
4.882441603535353636e+01 6.173824179292929415e+01 5.485519255050505194e+01
4.881790561868687206e+01 6.176156092171716949e+01 5.489539930555555713e+01
4.885006313131312794e+01 6.184532828282828376e+01 5.494902146464646364e+01
4.891927083333333570e+01 6.189875315656565391e+01 5.499471275252525260e+01
4.900363005050505194e+01 6.203472222222222143e+01 5.508648989898989612e+01
4.904592803030303116e+01 6.212736742424242209e+01 5.514898989898989612e+01
4.913206281565656752e+01 6.225737847222222143e+01 5.522754892676767469e+01
4.916591698232323182e+01 6.233858112373737725e+01 5.527150410353535648e+01
4.922470801767676818e+01 6.241157670454545325e+01 5.535412720959595845e+01
4.926033775252525260e+01 6.251633522727272663e+01 5.539622790404040131e+01
4.932623106060606233e+01 6.261000631313131493e+01 5.545722853535353636e+01
4.938825757575757791e+01 6.270928030303030454e+01 5.551846590909090651e+01
4.946685606060606233e+01 6.282291666666666430e+01 5.559832702020202078e+01
4.950414299242424221e+01 6.294969223484848442e+01 5.568848642676767469e+01
4.944495738636363313e+01 6.289145359848485128e+01 5.559789299242424221e+01
4.909876104797979934e+01 6.240905145202020066e+01 5.516252367424242209e+01
4.870024463383838054e+01 6.175879892676767469e+01 5.473338857323232531e+01
4.847281407828283051e+01 6.127931660353535648e+01 5.450816761363636687e+01
4.835278566919191690e+01 6.101771622474747403e+01 5.442159880050505194e+01
4.826140309343434609e+01 6.079091698232323182e+01 5.431964172979797922e+01
4.819097222222222143e+01 6.063399621212121104e+01 5.425457702020202078e+01
4.815660511363636687e+01 6.059252683080808310e+01 5.422415561868687206e+01
4.821413352272727337e+01 6.063948074494949481e+01 5.429604640151514872e+01
4.823409880050505194e+01 6.068817077020202078e+01 5.432342960858586167e+01
4.826605902777777857e+01 6.072675978535353636e+01 5.433834438131312794e+01
4.828519570707070585e+01 6.072522095959595845e+01 5.435937500000000000e+01
4.833211016414141170e+01 6.077639678030303116e+01 5.441228693181817988e+01
4.840435606060606233e+01 6.090088383838384090e+01 5.449179292929292728e+01
4.849810606060606233e+01 6.097711489898989612e+01 5.457070707070707272e+01
4.853397253787878896e+01 6.110436395202020066e+01 5.463877051767676818e+01
4.861529356060606233e+01 6.128464330808080973e+01 5.473666351010101039e+01
4.867526830808080973e+01 6.138517992424242209e+01 5.480137310606060908e+01
4.873899147727272663e+01 6.151235006313131493e+01 5.485073390151514872e+01
4.878235479797979934e+01 6.167992424242424221e+01 5.495075757575757791e+01
4.889618844696969546e+01 6.179723011363636687e+01 5.502276672979797922e+01
4.897407670454545325e+01 6.195655776515151558e+01 5.510428503787878896e+01
4.909560448232323182e+01 6.210270675505050519e+01 5.522644412878787534e+01
4.915936710858586167e+01 6.224380523989898961e+01 5.530583175505050519e+01
4.924964488636363313e+01 6.239958175505050519e+01 5.538174715909090651e+01
4.932682291666666430e+01 6.253752367424242209e+01 5.551763731060606233e+01
4.927884311868687206e+01 6.252805397727272663e+01 5.541725852272727337e+01
4.893383049242424221e+01 6.207398200757575779e+01 5.502237215909090651e+01
4.856395991161615910e+01 6.146010890151514872e+01 5.460610006313131493e+01
4.833700284090909349e+01 6.101250789141413833e+01 5.442191445707070585e+01
4.828223642676767469e+01 6.079612531565656752e+01 5.434410511363636687e+01
4.820639993686868507e+01 6.065731534090909349e+01 5.428768150252525260e+01
4.815822285353535648e+01 6.055942234848485128e+01 5.423050820707070585e+01
4.817558396464646364e+01 6.053448547979797922e+01 5.424455492424242209e+01
4.827450284090909349e+01 6.062156723484848442e+01 5.430780460858586167e+01
4.828026357323232531e+01 6.069203756313131493e+01 5.436501736111111427e+01
4.825434027777777857e+01 6.073650568181817988e+01 5.435014204545454675e+01
4.831131628787878896e+01 6.077264835858586167e+01 5.438928345959595845e+01
4.834998421717171624e+01 6.083293876262626299e+01 5.442242739898989612e+01
4.839161142676767469e+01 6.095616319444444287e+01 5.452276672979797922e+01
4.848240214646464352e+01 6.108072916666666430e+01 5.458325441919191690e+01
4.854360006313131493e+01 6.120695233585858830e+01 5.467270359848485128e+01
4.865893308080808310e+01 6.135511363636363313e+01 5.478030303030303116e+01
4.871267361111111427e+01 6.150418244949494806e+01 5.483357007575757791e+01
4.879924242424242209e+01 6.161600378787878896e+01 5.490924873737373701e+01
4.884769570707070585e+01 6.173042929292929415e+01 5.497301136363636687e+01
4.891568023989898961e+01 6.188553503787878896e+01 5.506088226010101039e+01
4.897348484848485128e+01 6.200489267676767469e+01 5.512484217171716949e+01
4.907035195707070585e+01 6.213742897727272663e+01 5.520797821969696884e+01
4.916737689393939092e+01 6.230926452020202078e+01 5.531510416666666430e+01
4.926400726010101039e+01 6.243714488636363313e+01 5.540163352272727337e+01
4.932228535353535648e+01 6.258080808080808310e+01 5.548832070707070585e+01
4.931616950757575779e+01 6.261225536616161946e+01 5.545584753787878896e+01
4.901704545454545325e+01 6.227462121212121104e+01 5.510479797979797922e+01
4.873311237373737725e+01 6.175946969696969546e+01 5.473263888888888573e+01
4.854813762626262275e+01 6.141903409090909349e+01 5.457528409090909349e+01
4.848764993686868507e+01 6.123480902777777857e+01 5.450390625000000000e+01
4.847048611111111427e+01 6.120754419191919027e+01 5.450284090909090651e+01
4.844306344696969546e+01 6.116796875000000000e+01 5.448978061868687206e+01
4.848248106060606233e+01 6.120091540404040131e+01 5.453851010101010388e+01
4.855385890151514872e+01 6.129391571969696884e+01 5.462204071969696884e+01
4.855993529040404155e+01 6.136848958333333570e+01 5.462890625000000000e+01
4.855906723484848442e+01 6.139539930555555713e+01 5.461935763888888573e+01
4.859745896464646364e+01 6.141769255050505194e+01 5.464133522727272663e+01
4.864973958333333570e+01 6.152694917929292728e+01 5.471697443181817988e+01
4.876783459595959869e+01 6.165135732323232531e+01 5.480160984848485128e+01
4.882776988636363313e+01 6.177852746212121104e+01 5.487338226010101039e+01
4.883412247474747403e+01 6.194333964646464352e+01 5.494239267676767469e+01
4.893931502525252597e+01 6.207425820707070585e+01 5.504900568181817988e+01
4.901191603535353636e+01 6.224171401515151558e+01 5.514764835858586167e+01
4.913880997474747403e+01 6.238012941919191690e+01 5.522924558080808310e+01
4.920490056818182012e+01 6.251866319444444287e+01 5.531206597222222143e+01
4.932346906565656752e+01 6.265348800505050519e+01 5.540806502525252597e+01
4.937385574494949481e+01 6.278073705808080973e+01 5.548780776515151558e+01
4.947675978535353636e+01 6.294708806818182012e+01 5.556798453282828376e+01
4.952292455808080973e+01 6.308810763888888573e+01 5.566039299242424221e+01
4.959761679292929415e+01 6.324944760101010388e+01 5.574802714646464352e+01
4.960925662878787534e+01 6.334252683080808310e+01 5.575161773989898961e+01
4.945687342171716949e+01 6.311454387626262275e+01 5.548165246212121104e+01
4.914642518939393767e+01 6.270103377525252597e+01 5.513064236111111427e+01
4.898678188131312794e+01 6.240360637626262275e+01 5.494637784090909349e+01
4.896058238636363313e+01 6.227797506313131493e+01 5.489729324494949481e+01
4.894460227272727337e+01 6.222427398989898961e+01 5.490230429292929415e+01
4.891441761363636687e+01 6.216141887626262275e+01 5.486785827020202078e+01
4.893706597222222143e+01 6.218911773989898961e+01 5.489934501262626299e+01
4.901459911616161946e+01 6.230452967171716949e+01 5.500402462121212466e+01
4.902162247474747403e+01 6.235385101010101039e+01 5.502383207070707272e+01
4.906234217171716949e+01 6.241208964646464352e+01 5.506076388888888573e+01
4.907934816919191690e+01 6.245955650252525260e+01 5.507287720959595845e+01
4.910795454545454675e+01 6.251641414141413833e+01 5.509659090909090651e+01
4.913995422979797922e+01 6.260318023989898961e+01 5.516347064393939092e+01
4.926235006313131493e+01 6.276692708333333570e+01 5.526724273989898961e+01
4.933996212121212466e+01 6.286442550505050519e+01 5.532970328282828376e+01
4.938786300505050519e+01 6.301870265151514872e+01 5.540648674242424221e+01
4.953353851010101039e+01 6.319420770202020066e+01 5.552422664141413833e+01
4.954738794191919027e+01 6.328633996212121104e+01 5.557674400252525260e+01
4.966130050505050519e+01 6.345391414141413833e+01 5.565593434343434609e+01
4.969622001262626299e+01 6.357516571969696884e+01 5.572604955808080973e+01
4.974881628787878896e+01 6.372340593434343248e+01 5.577296401515151558e+01
4.983692392676767469e+01 6.385775726010101039e+01 5.585286458333333570e+01
4.993951231060606233e+01 6.401511205808080263e+01 5.595419034090909349e+01
4.998449337121212466e+01 6.413821811868686495e+01 5.602631786616161946e+01
5.009161931818182012e+01 6.429142992424242209e+01 5.610976957070707272e+01
5.016378630050505194e+01 6.446397569444444287e+01 5.621034564393939092e+01
5.018087121212121104e+01 6.455760732323231821e+01 5.621890782828283051e+01
4.999250315656565391e+01 6.437981376262625588e+01 5.599802714646464352e+01
4.971468592171716949e+01 6.397289299242424221e+01 5.559789299242424221e+01
4.955697601010101039e+01 6.366414141414141170e+01 5.539283459595959869e+01
4.950635258838384090e+01 6.351834753787878896e+01 5.534000157828283051e+01
4.943734217171716949e+01 6.343576388888888573e+01 5.530808080808080973e+01
4.944689078282828376e+01 6.336702967171716949e+01 5.528101325757575779e+01
4.942096748737373701e+01 6.333842329545454675e+01 5.526408617424242209e+01
4.947261679292929415e+01 6.335172032828283051e+01 5.530563446969696884e+01
4.952103061868687206e+01 6.343375157828283051e+01 5.538450915404040131e+01
4.952296401515151558e+01 6.348240214646464352e+01 5.539417613636363313e+01
4.953476167929292728e+01 6.352260890151514872e+01 5.540960385101010388e+01
4.958301767676767469e+01 6.355318813131312794e+01 5.544712752525252597e+01
4.957733585858586167e+01 6.362073863636363313e+01 5.547932449494949481e+01
4.965238320707070585e+01 6.372687815656565391e+01 5.554600694444444287e+01
4.969992897727272663e+01 6.383976483585858830e+01 5.562432922979797922e+01
4.983128156565656752e+01 6.395312500000000000e+01 5.569144570707070585e+01
4.986616161616161946e+01 6.405808080808080263e+01 5.575331439393939092e+01
4.996744791666666430e+01 6.418982796717172334e+01 5.585854640151514872e+01
5.002497632575757791e+01 6.432469223484848442e+01 5.591544349747474740e+01
5.008893623737373701e+01 6.441800820707071296e+01 5.596835542929292728e+01
5.010673137626262275e+01 6.452765940656566102e+01 5.603744476010101039e+01
5.020864898989898961e+01 6.469128787878787534e+01 5.614030934343434609e+01
5.022940340909090651e+01 6.479474431818181301e+01 5.620399305555555713e+01
5.030014993686868507e+01 6.493051609848484418e+01 5.628799715909090651e+01
5.032867739898989612e+01 6.507031250000000000e+01 5.632488952020202078e+01
5.044957386363636687e+01 6.519294507575757791e+01 5.642763573232323182e+01
5.042262468434343248e+01 6.531182922979797922e+01 5.648512468434343248e+01
5.054533617424242209e+01 6.544527304292928704e+01 5.658526672979797922e+01
5.055330650252525260e+01 6.547297190656566102e+01 5.656340751262626299e+01
5.036576704545454675e+01 6.519594381313130782e+01 5.621504103535353636e+01
5.005362215909090651e+01 6.478657670454545325e+01 5.584639362373737725e+01
4.994681186868687206e+01 6.453977272727273373e+01 5.571748737373737725e+01
4.988675820707070585e+01 6.442400568181818699e+01 5.567416351010101039e+01
4.989421559343434609e+01 6.435112847222222854e+01 5.568477746212121104e+01
4.984055397727272663e+01 6.427915877525252597e+01 5.567956912878787534e+01
4.985199652777777857e+01 6.426029829545454675e+01 5.568043718434343248e+01
4.986075599747474740e+01 6.429478377525252597e+01 5.573323074494949481e+01
4.993927556818182012e+01 6.435799400252524549e+01 5.578933869949494806e+01
4.993631628787878896e+01 6.437271148989898961e+01 5.579474431818182012e+01
4.999925031565656752e+01 6.437851167929292728e+01 5.580275410353535648e+01
4.998244160353535648e+01 6.438821811868686495e+01 5.580819917929292728e+01
5.000473484848485128e+01 6.448816287878787534e+01 5.585937500000000000e+01
5.008179450757575779e+01 6.460641571969696884e+01 5.593154198232323182e+01
5.010657354797979934e+01 6.470395359848484418e+01 5.600114425505050519e+01
5.018300189393939092e+01 6.480137310606060908e+01 5.607930871212121104e+01
5.024064867424242209e+01 6.489421559343433898e+01 5.616110321969696884e+01
5.035199652777777857e+01 6.502434501262625588e+01 5.624940814393939092e+01
5.039409722222222143e+01 6.510527146464646364e+01 5.629371843434343248e+01
5.043750000000000000e+01 6.521575126262625588e+01 5.636347853535353636e+01
5.044787720959595845e+01 6.529667771464646364e+01 5.638758680555555713e+01
5.053278882575757791e+01 6.541883680555555713e+01 5.647391887626262275e+01
5.058664772727272663e+01 6.552383207070707272e+01 5.653488005050505194e+01
5.061051925505050519e+01 6.560436395202020776e+01 5.658779198232323182e+01
5.068063446969696884e+01 6.574960542929292728e+01 5.668521148989898961e+01
5.074715909090909349e+01 6.584185606060606233e+01 5.673390151515151558e+01
5.074439709595959869e+01 6.598413825757575069e+01 5.678164457070707272e+01
5.087543402777777857e+01 6.608597695707071296e+01 5.687732796717171624e+01
5.079229797979797922e+01 6.603314393939393767e+01 5.678503787878787534e+01
5.044389204545454675e+01 6.564149305555555713e+01 5.637381628787878896e+01
5.027122790404040131e+01 6.525323547979797922e+01 5.606636679292929415e+01
5.015289614898989612e+01 6.504273200757575069e+01 5.597328756313131493e+01
5.020809659090909349e+01 6.499060921717172334e+01 5.598697916666666430e+01
5.018761837121212466e+01 6.492041508838383379e+01 5.598670296717171624e+01
5.020947758838384090e+01 6.488987531565656752e+01 5.601108743686868507e+01
5.019961332070707272e+01 6.490210700757575069e+01 5.604352114898989612e+01
5.023713699494949481e+01 6.494657512626262985e+01 5.609319760101010388e+01
5.023721590909090651e+01 6.496811868686869218e+01 5.611347853535353636e+01
5.026716382575757791e+01 6.497849589646465063e+01 5.610933554292929415e+01
5.018016098484848442e+01 6.498066603535353636e+01 5.611292613636363313e+01
5.026349431818182012e+01 6.503053977272726627e+01 5.616043244949494806e+01
5.029703282828283051e+01 6.509911616161616621e+01 5.621717171717171624e+01
5.037314551767676818e+01 6.517380839646465063e+01 5.628207859848485128e+01
5.039338699494949481e+01 6.525591856060606233e+01 5.634730113636363313e+01
5.045075757575757791e+01 6.535290404040404155e+01 5.640940656565656752e+01
5.051065340909090651e+01 6.544199810606060908e+01 5.647766729797979934e+01
5.056964172979797922e+01 6.552907986111111427e+01 5.654265309343434609e+01
5.063040561868687206e+01 6.560736268939393767e+01 5.658179450757575779e+01
5.062279040404040131e+01 6.567534722222222854e+01 5.660716540404040131e+01
5.073070549242424221e+01 6.579525726010101039e+01 5.670324337121212466e+01
5.076392834595959869e+01 6.589050662878787534e+01 5.677402935606060908e+01
5.082220643939393767e+01 6.599629103535353636e+01 5.680973800505050519e+01
5.089847695707070585e+01 6.610460069444444287e+01 5.690494791666666430e+01
5.090944602272727337e+01 6.617728061868686495e+01 5.694511521464646364e+01
5.102612058080808310e+01 6.633641098484848442e+01 5.703527462121212466e+01
5.097766729797979934e+01 6.634240845959595845e+01 5.699850063131312794e+01
5.067941130050505194e+01 6.597028882575757791e+01 5.659276357323232531e+01
5.036379419191919027e+01 6.551025883838383379e+01 5.616524621212121104e+01
5.019306344696969546e+01 6.519764046717172334e+01 5.604107481060606233e+01
5.014950284090909349e+01 6.506758996212121815e+01 5.601740056818182012e+01
5.021551452020202078e+01 6.495920138888888573e+01 5.601396780303030454e+01
5.017538667929292728e+01 6.490455334595959869e+01 5.602008364898989612e+01
5.017428188131312794e+01 6.487882733585858830e+01 5.603697127525252597e+01
5.019700915404040131e+01 6.489902935606060908e+01 5.607800662878787534e+01
5.024881628787878896e+01 6.494452335858585457e+01 5.612728851010101039e+01
5.023859690656565391e+01 6.496318655303029743e+01 5.612464488636363313e+01
5.025639204545454675e+01 6.495920138888888573e+01 5.614338699494949481e+01
5.024431818181817988e+01 6.496685606060606233e+01 5.615340909090909349e+01
5.027923768939393767e+01 6.500840435606060908e+01 5.619527304292929415e+01
5.034513099747474740e+01 6.509339488636364024e+01 5.628215751262626299e+01
5.039713541666666430e+01 6.518217329545454675e+01 5.635420612373737725e+01
5.042471590909090651e+01 6.527335858585858830e+01 5.639725378787878896e+01
5.048717645202020066e+01 6.537432922979797922e+01 5.646981534090909349e+01
5.052059659090909349e+01 6.545367739898989612e+01 5.651680871212121104e+01
5.064275568181817988e+01 6.555295138888888573e+01 5.658830492424242209e+01
5.064086174242424221e+01 6.564291351010101039e+01 5.663249684343434609e+01
5.071413352272727337e+01 6.573354640151515582e+01 5.670213857323232531e+01
5.077466066919191690e+01 6.582832228535353636e+01 5.676755839646464352e+01
5.084540719696969546e+01 6.594389204545454675e+01 5.682283775252525260e+01
5.086186079545454675e+01 6.602489741161616621e+01 5.689800347222222143e+01
5.089764835858586167e+01 6.614054608585858830e+01 5.696077967171716949e+01
5.095316445707070585e+01 6.626424400252524549e+01 5.703302556818182012e+01
5.102911931818182012e+01 6.637018623737374412e+01 5.711971275252525260e+01
5.107579703282828376e+01 6.644969223484848442e+01 5.713624526515151558e+01
5.097439236111111427e+01 6.632934816919191690e+01 5.697423453282828376e+01
5.054288983585858830e+01 6.581230271464646364e+01 5.646255523989898961e+01
5.027225378787878896e+01 6.532544191919191690e+01 5.616461489898989612e+01
5.022206439393939092e+01 6.506613005050505194e+01 5.605082070707070585e+01
5.017369002525252597e+01 6.490017361111111427e+01 5.600923295454545325e+01
5.013143150252525260e+01 6.482603377525252597e+01 5.599854008838384090e+01
5.019602272727272663e+01 6.473958333333332860e+01 5.600126262626262275e+01
5.010578440656565391e+01 6.471058238636364024e+01 5.599704071969696884e+01
5.014654356060606233e+01 6.472072285353534937e+01 5.602548926767676818e+01
5.013099747474747403e+01 6.472222222222222854e+01 5.605823863636363313e+01
5.017566287878787534e+01 6.474195075757575069e+01 5.608506944444444287e+01
5.016398358585858830e+01 6.476357323232323893e+01 5.610716540404040131e+01
5.019223484848485128e+01 6.477604166666667140e+01 5.610022095959595845e+01
5.022301136363636687e+01 6.484027777777777146e+01 5.618560606060606233e+01
5.034410511363636687e+01 6.495142834595959869e+01 5.627765940656565391e+01
5.033708175505050519e+01 6.502631786616161946e+01 5.635823074494949481e+01
5.042507102272727337e+01 6.512756470959595845e+01 5.639950284090909349e+01
5.048974116161615910e+01 6.522174873737374412e+01 5.646417297979797922e+01
5.052975063131312794e+01 6.531068497474747403e+01 5.652896148989898961e+01
5.057473169191919027e+01 6.544341856060606233e+01 5.661766098484848442e+01
5.065048926767676818e+01 6.554158775252524549e+01 5.667684659090909349e+01
5.067700441919191690e+01 6.566216856060606233e+01 5.675260416666666430e+01
5.077466066919191690e+01 6.579565183080808310e+01 5.682516571969696884e+01
5.081715593434343248e+01 6.588218118686869218e+01 5.687507891414141170e+01
5.090080492424242209e+01 6.599676452020202078e+01 5.697719381313131493e+01
5.095202020202020066e+01 6.609643308080808310e+01 5.703314393939393767e+01
5.099708017676767469e+01 6.624202967171717660e+01 5.713076073232323182e+01
5.105733112373737725e+01 6.636178188131313505e+01 5.719637784090909349e+01
5.112606534090909349e+01 6.642625473484848442e+01 5.723307291666666430e+01
5.084493371212121104e+01 6.619799558080808310e+01 5.693110795454545325e+01
5.048240214646464352e+01 6.564559659090909349e+01 5.643710542929292728e+01
5.025836489898989612e+01 6.521780303030303116e+01 5.616303661616161946e+01
5.017933238636363313e+01 6.497573390151515582e+01 5.607469223484848442e+01
5.012176452020202078e+01 6.488975694444444287e+01 5.606920770202020066e+01
5.015869633838384090e+01 6.481068497474747403e+01 5.605958017676767469e+01
5.010136521464646364e+01 6.472873263888888573e+01 5.606490688131312794e+01
5.015265940656565391e+01 6.475493213383838054e+01 5.612440814393939092e+01
5.021638257575757791e+01 6.481755050505050519e+01 5.618655303030303116e+01
5.024652777777777857e+01 6.479719065656566102e+01 5.618450126262626299e+01
5.020561079545454675e+01 6.480299084595959869e+01 5.616804766414141170e+01
5.017660984848485128e+01 6.479498106060606233e+01 5.616666666666666430e+01
5.019554924242424221e+01 6.482749368686869218e+01 5.620486111111111427e+01
5.032702020202020066e+01 6.491066919191919737e+01 5.627162247474747403e+01
5.033151830808080973e+01 6.498555871212121815e+01 5.632189078282828376e+01
5.038983585858586167e+01 6.510527146464646364e+01 5.641761363636363313e+01
5.050540561868687206e+01 6.526298137626262985e+01 5.654233743686868507e+01
5.052059659090909349e+01 6.535172032828282340e+01 5.658404356060606233e+01
5.061687184343434609e+01 6.546835542929292728e+01 5.667795138888888573e+01
5.066639046717171624e+01 6.554896622474747403e+01 5.671074021464646364e+01
5.066422032828283051e+01 6.566264204545454675e+01 5.678322285353535648e+01
5.077785669191919027e+01 6.576286300505050519e+01 5.686781881313131493e+01
5.081289457070707272e+01 6.588486426767676107e+01 5.694231376262626299e+01
5.084351325757575779e+01 6.599439709595959869e+01 5.698682133838384090e+01
5.092274305555555713e+01 6.611403093434343248e+01 5.705563446969696884e+01
5.096796085858586167e+01 6.621212121212121815e+01 5.713636363636363313e+01
5.104521780303030454e+01 6.632220643939393767e+01 5.719404987373737725e+01
5.096030618686868507e+01 6.623839962121212466e+01 5.704616477272727337e+01
5.056841856060606233e+01 6.572403724747475451e+01 5.655105744949494806e+01
5.034927398989898961e+01 6.524352904040404155e+01 5.621906565656565391e+01
5.016954703282828376e+01 6.498488794191919737e+01 5.610041824494949481e+01
5.019472064393939092e+01 6.490889362373737015e+01 5.612054135101010388e+01
5.021531723484848442e+01 6.487503945707071296e+01 5.615991950757575779e+01
5.021421243686868507e+01 6.486699021464646364e+01 5.617664930555555713e+01
5.021736900252525260e+01 6.489902935606060908e+01 5.621784248737373701e+01
5.026282354797979934e+01 6.494795612373737015e+01 5.626361268939393767e+01
5.031092171717171624e+01 6.497553661616161946e+01 5.629955808080808310e+01
5.028444602272727337e+01 6.496452809343433898e+01 5.626313920454545325e+01
5.030149147727272663e+01 6.499135890151515582e+01 5.629644097222222143e+01
5.034043560606060908e+01 6.501830808080808310e+01 5.633238636363636687e+01
5.036600378787878896e+01 6.509738005050505194e+01 5.641824494949494806e+01
5.043947285353535648e+01 6.517084911616161946e+01 5.647908775252525260e+01
5.052312184343434609e+01 6.529032512626262985e+01 5.655121527777777857e+01
5.056530145202020066e+01 6.538806029040404155e+01 5.662054135101010388e+01
5.061126893939393767e+01 6.551199494949494806e+01 5.669365530303030454e+01
5.068469854797979934e+01 6.561667455808080263e+01 5.677150410353535648e+01
5.071930239898989612e+01 6.570336174242424931e+01 5.682946654040404155e+01
5.076491477272727337e+01 6.581068497474747403e+01 5.689496527777777857e+01
5.079281092171716949e+01 6.587551294191919737e+01 5.692743844696969546e+01
5.087318497474747403e+01 6.599708017676768179e+01 5.699534406565656752e+01
5.099873737373737725e+01 6.616303661616161946e+01 5.712563131313131493e+01
5.103274936868687206e+01 6.628890467171717660e+01 5.721062184343434609e+01
5.109169823232323182e+01 6.636742424242424931e+01 5.726688762626262275e+01
5.097924558080808310e+01 6.622971906565656752e+01 5.706273674242424221e+01
5.056443339646464352e+01 6.565092329545454675e+01 5.647999526515151558e+01
5.022336647727272663e+01 6.512582859848484418e+01 5.614492582070707272e+01
5.010243055555555713e+01 6.479655934343433898e+01 5.601325757575757791e+01
5.009501262626262275e+01 6.464346590909090651e+01 5.598295454545454675e+01
5.003488005050505194e+01 6.452462121212121815e+01 5.597127525252525260e+01
5.001988636363636687e+01 6.445296717171717660e+01 5.595249368686868507e+01
5.000966698232323182e+01 6.445789930555555713e+01 5.598867582070707272e+01
5.007552083333333570e+01 6.451523042929292728e+01 5.605626578282828376e+01
5.008972537878787534e+01 6.453511679292928704e+01 5.609619633838384090e+01
5.006893150252525260e+01 6.453594539141414543e+01 5.608360953282828376e+01
5.010519255050505194e+01 6.452154356060606233e+01 5.609161931818182012e+01
5.010874368686868507e+01 6.455334595959595845e+01 5.612989267676767469e+01
5.017144097222222143e+01 6.461746369949494806e+01 5.617333491161615910e+01
5.022103851010101039e+01 6.471267361111111427e+01 5.624218750000000000e+01
5.029742739898989612e+01 6.483136047979797922e+01 5.632078598484848442e+01
5.034635416666666430e+01 6.492447916666667140e+01 5.637855113636363313e+01
5.035531092171716949e+01 6.503113162878787534e+01 5.646484375000000000e+01
5.045458491161615910e+01 6.509505208333332860e+01 5.652103061868687206e+01
5.044618055555555713e+01 6.519523358585858830e+01 5.659643308080808310e+01
5.052552872474747403e+01 6.528389362373737015e+01 5.663206281565656752e+01
5.057761205808080973e+01 6.537874842171717660e+01 5.670040246212121104e+01
5.063478535353535648e+01 6.547616792929292728e+01 5.674589646464646364e+01
5.072147253787878896e+01 6.556569602272726627e+01 5.680417455808080973e+01
5.076388888888888573e+01 6.568986742424242209e+01 5.688525883838384090e+01
5.080267518939393767e+01 6.579509943181818699e+01 5.694756155303030454e+01
5.086655618686868507e+01 6.586513573232323893e+01 5.695383522727272663e+01
5.056727430555555713e+01 6.557658617424242209e+01 5.662993213383838054e+01
5.023465119949494806e+01 6.490526357323231821e+01 5.613869160353535648e+01
4.996409406565656752e+01 6.438123421717172334e+01 5.586450441919191690e+01
4.985894097222222143e+01 6.408179450757575069e+01 5.576298137626262275e+01
4.976187657828283051e+01 6.391007733585858830e+01 5.573662405303030454e+01
4.973855744949494806e+01 6.377422664141413833e+01 5.568884154040404155e+01
4.969310290404040131e+01 6.369231376262626299e+01 5.567305871212121104e+01
4.976100852272727337e+01 6.367467645202020066e+01 5.571555397727272663e+01
4.971642203282828376e+01 6.368738162878787534e+01 5.576029829545454675e+01
4.975003945707070585e+01 6.370079703282828376e+01 5.579517834595959869e+01
4.976475694444444287e+01 6.369373421717171624e+01 5.579016729797979934e+01
4.976795296717171624e+01 6.369898200757575779e+01 5.579367897727272663e+01
4.977414772727272663e+01 6.372569444444444287e+01 5.581960227272727337e+01
4.981983901515151558e+01 6.378937815656565391e+01 5.587365845959595845e+01
4.989176925505050519e+01 6.390076546717171624e+01 5.593390940656565391e+01
4.995813604797979934e+01 6.399475220959595845e+01 5.604446811868687206e+01
5.003180239898989612e+01 6.411639835858585457e+01 5.612586805555555713e+01
5.011912089646464352e+01 6.422881155303029743e+01 5.621523832070707272e+01
5.015064709595959869e+01 6.432252209595959869e+01 5.625149936868687206e+01
5.017274305555555713e+01 6.446046401515151558e+01 5.629553345959595845e+01
5.026858428030303116e+01 6.455772569444444287e+01 5.636691130050505194e+01
5.033700284090909349e+01 6.471484375000000000e+01 5.647005208333333570e+01
5.038853377525252597e+01 6.481940498737374412e+01 5.655961963383838054e+01
5.047494476010101039e+01 6.493327809343433898e+01 5.664303188131312794e+01
5.053018465909090651e+01 6.507642834595959869e+01 5.673330965909090651e+01
5.061040088383838054e+01 6.522956123737374412e+01 5.682725694444444287e+01
5.066370738636363313e+01 6.536935763888888573e+01 5.692680713383838054e+01
5.058475378787878896e+01 6.524684343434343248e+01 5.675694444444444287e+01
5.015909090909090651e+01 6.471291035353534937e+01 5.625363005050505194e+01
4.986399147727272663e+01 6.409347380050505194e+01 5.587093592171716949e+01
4.970955650252525260e+01 6.370687342171716949e+01 5.571429135101010388e+01
4.967783301767676818e+01 6.350879892676767469e+01 5.566678503787878896e+01
4.960862531565656752e+01 6.338040561868687206e+01 5.565502683080808310e+01
4.957757260101010388e+01 6.330942234848485128e+01 5.566911300505050519e+01
4.958613478535353636e+01 6.328089488636363313e+01 5.569093276515151558e+01
4.962776199494949481e+01 6.328906250000000000e+01 5.572245896464646364e+01
4.962409248737373701e+01 6.333353061868687206e+01 5.576740056818182012e+01
4.967968750000000000e+01 6.336324179292929415e+01 5.578227588383838054e+01
4.969180082070707272e+01 6.337125157828283051e+01 5.580669981060606233e+01
4.971298926767676818e+01 6.339843750000000000e+01 5.583956755050505194e+01
4.974104324494949481e+01 6.346752683080808310e+01 5.587882733585858830e+01
4.978491950757575779e+01 6.356380208333333570e+01 5.595521622474747403e+01
4.987014678030303116e+01 6.366402304292929415e+01 5.601676925505050519e+01
4.993051609848485128e+01 6.376716382575757791e+01 5.608534564393939092e+01
5.000493213383838054e+01 6.387030460858586167e+01 5.616575915404040131e+01
5.004577020202020066e+01 6.398674242424242209e+01 5.621732954545454675e+01
5.003030303030303116e+01 6.405934343434343248e+01 5.625284090909090651e+01
5.015660511363636687e+01 6.416670612373737015e+01 5.635594223484848442e+01
5.018189709595959869e+01 6.427470012626262985e+01 5.640490845959595845e+01
5.029032512626262275e+01 6.438012941919191690e+01 5.646725063131312794e+01
5.028997001262626299e+01 6.452576546717172334e+01 5.650445864898989612e+01
5.036785827020202078e+01 6.462243529040404155e+01 5.658376736111111427e+01
5.043552714646464352e+01 6.476349431818181301e+01 5.667653093434343248e+01
5.049996054292929415e+01 6.488016887626262985e+01 5.676053503787878896e+01
5.040076546717171624e+01 6.482248263888888573e+01 5.663624526515151558e+01
5.008274147727272663e+01 6.427513415404040131e+01 5.616512784090909349e+01
4.974771148989898961e+01 6.370825441919191690e+01 5.581463068181817988e+01
4.962050189393939092e+01 6.334666982323232531e+01 5.566011679292929415e+01
4.952367424242424221e+01 6.318418560606060908e+01 5.564662247474747403e+01
4.953551136363636687e+01 6.312799873737373701e+01 5.564330808080808310e+01
4.951290246212121104e+01 6.309134311868687206e+01 5.565542140151514872e+01
4.956995738636363313e+01 6.310231218434343248e+01 5.569369476010101039e+01
4.959852430555555713e+01 6.314287405303030454e+01 5.574293718434343248e+01
4.958601641414141170e+01 6.315482954545454675e+01 5.573153409090909349e+01
4.954324494949494806e+01 6.314835858585858830e+01 5.572679924242424221e+01
4.959067234848485128e+01 6.313423295454545325e+01 5.571930239898989612e+01
4.958921243686868507e+01 6.318690814393939092e+01 5.577292455808080973e+01
4.969377367424242209e+01 6.325422190656565391e+01 5.582808554292929415e+01
4.977781723484848442e+01 6.336572758838384090e+01 5.591575915404040131e+01
4.985239109848485128e+01 6.348228377525252597e+01 5.600217013888888573e+01
4.992877998737373701e+01 6.363490372474747403e+01 5.611927872474747403e+01
5.001373106060606233e+01 6.375804924242424221e+01 5.619034090909090651e+01
5.004474431818182012e+01 6.387855113636363313e+01 5.626712436868687206e+01
5.017384785353535648e+01 6.401428345959595845e+01 5.635235164141413833e+01
5.015976167929292728e+01 6.408447758838383379e+01 5.639918718434343248e+01
5.022423453282828376e+01 6.418241003787878185e+01 5.645750473484848442e+01
5.023074494949494806e+01 6.430460858585858830e+01 5.652730429292929415e+01
5.034702493686868507e+01 6.442183554292928704e+01 5.660681029040404155e+01
5.039674084595959869e+01 6.452505523989898961e+01 5.667688604797979934e+01
5.043714488636363313e+01 6.456672190656566102e+01 5.664910827020202078e+01
5.010988794191919027e+01 6.419022253787878185e+01 5.625856218434343248e+01
4.975094696969696884e+01 6.355981691919191690e+01 5.581739267676767469e+01
4.951160037878787534e+01 6.314101957070707272e+01 5.562365845959595845e+01
4.942866161616161946e+01 6.288431186868687206e+01 5.554545454545454675e+01
4.938257575757575779e+01 6.276388888888888573e+01 5.552556818181817988e+01
4.938435132575757791e+01 6.269969223484848442e+01 5.550051294191919027e+01
4.933112373737373701e+01 6.265198863636363313e+01 5.549984217171716949e+01
4.939571496212121104e+01 6.268675031565656752e+01 5.552718592171716949e+01
4.943008207070707272e+01 6.272269570707070585e+01 5.555792297979797922e+01
4.945288825757575779e+01 6.272766729797979934e+01 5.556936553030303116e+01
4.942258522727272663e+01 6.274565972222222143e+01 5.558814709595959869e+01
4.944767992424242209e+01 6.276112689393939092e+01 5.559998421717171624e+01
4.948208648989898961e+01 6.283309659090909349e+01 5.566011679292929415e+01
4.961635890151514872e+01 6.294795612373737725e+01 5.575098642676767469e+01
4.966804766414141170e+01 6.307461332070707272e+01 5.582950599747474740e+01
4.976203440656565391e+01 6.318659248737373701e+01 5.591102430555555713e+01
4.980764678030303116e+01 6.329675662878787534e+01 5.599672506313131493e+01
4.988967803030303116e+01 6.344349747474747403e+01 5.609816919191919027e+01
4.999546243686868507e+01 6.357264046717171624e+01 5.619211647727272663e+01
5.006230271464646364e+01 6.368477746212121104e+01 5.626069286616161946e+01
5.008479324494949481e+01 6.381111900252525260e+01 5.635026041666666430e+01
5.015964330808080973e+01 6.393126578282828376e+01 5.640980113636363313e+01
5.025485321969696884e+01 6.408234690656566102e+01 5.651779513888888573e+01
5.036347853535353636e+01 6.422758838383838054e+01 5.663368055555555713e+01
5.045280934343434609e+01 6.438762626262625588e+01 5.676025883838384090e+01
5.054959753787878896e+01 6.455306976010101039e+01 5.686304450757575779e+01
5.049163510101010388e+01 6.451625631313130782e+01 5.678156565656565391e+01
5.013703440656565391e+01 6.400556344696970257e+01 5.632500789141413833e+01
4.977308238636363313e+01 6.334773516414141170e+01 5.589382102272727337e+01
4.954036458333333570e+01 6.288458806818182012e+01 5.566473327020202078e+01
4.942432133838384090e+01 6.260661300505050519e+01 5.557283775252525260e+01
4.937354008838384090e+01 6.244330018939393767e+01 5.552205650252525260e+01
4.923212594696969546e+01 6.228847064393939092e+01 5.542436079545454675e+01
4.928310448232323182e+01 6.225627367424242209e+01 5.546886837121212466e+01
4.928803661616161946e+01 6.226988636363636687e+01 5.551246843434343248e+01
4.933834438131312794e+01 6.232587594696969546e+01 5.554431029040404155e+01
4.936797664141413833e+01 6.236182133838384090e+01 5.556100063131312794e+01
4.938892834595959869e+01 6.237582859848485128e+01 5.559252683080808310e+01
4.941883680555555713e+01 6.242751736111111427e+01 5.562669665404040131e+01
4.948330965909090651e+01 6.249356849747474740e+01 5.569732481060606233e+01
4.953420928030303116e+01 6.262748579545454675e+01 5.577284564393939092e+01
4.964042771464646364e+01 6.275611584595959869e+01 5.588490372474747403e+01
4.973011363636363313e+01 6.289488636363636687e+01 5.599463383838384090e+01
4.982658617424242209e+01 6.302355587121212466e+01 5.607721748737373701e+01
4.993438289141413833e+01 6.319274779040404155e+01 5.618422506313131493e+01
4.999735637626262275e+01 6.333510890151514872e+01 5.629091698232323182e+01
5.008688446969696884e+01 6.349423926767676818e+01 5.639733270202020066e+01
5.018126578282828376e+01 6.364591224747474740e+01 5.649092487373737725e+01
5.024850063131312794e+01 6.378022411616161946e+01 5.656731376262626299e+01
5.036517518939393767e+01 6.391568023989898961e+01 5.668430397727272663e+01
5.043260732323232531e+01 6.408775252525252597e+01 5.679971590909090651e+01
5.054261363636363313e+01 6.425489267676768179e+01 5.691919191919191690e+01
5.058502998737373701e+01 6.437969539141414543e+01 5.700232796717171624e+01
5.063474589646464352e+01 6.447786458333332860e+01 5.703878630050505194e+01
5.040613162878787534e+01 6.418248895202020776e+01 5.678413036616161946e+01
5.005602904040404155e+01 6.354813762626262275e+01 5.635101010101010388e+01
4.978136837121212466e+01 6.304604640151514872e+01 5.607445549242424221e+01
4.965810448232323182e+01 6.275974589646464352e+01 5.599127998737373701e+01
4.960815183080808310e+01 6.260420612373737725e+01 5.594622001262626299e+01
4.957193023989898961e+01 6.249175347222222143e+01 5.590573705808080973e+01
4.954620422979797922e+01 6.245134943181817988e+01 5.588806029040404155e+01
4.956321022727272663e+01 6.249471275252525260e+01 5.592968750000000000e+01
4.960195707070707272e+01 6.254671717171716949e+01 5.597380050505050519e+01
4.967499210858586167e+01 6.261044034090909349e+01 5.599822443181817988e+01
4.967763573232323182e+01 6.261292613636363313e+01 5.601633522727272663e+01
4.972360321969696884e+01 6.266915246212121104e+01 5.606088226010101039e+01
4.975915404040404155e+01 6.274510732323232531e+01 5.612247474747474740e+01
4.982193023989898961e+01 6.285239109848485128e+01 5.621255523989898961e+01
4.994184027777777857e+01 6.299108270202020066e+01 5.631857638888888573e+01
4.997498421717171624e+01 6.311750315656565391e+01 5.640033143939393767e+01
5.007559974747474740e+01 6.328740530303030454e+01 5.650347222222222143e+01
5.017854324494949481e+01 6.343138415404040131e+01 5.659347380050505194e+01
5.023504577020202078e+01 6.356901041666666430e+01 5.666670612373737725e+01
5.034643308080808310e+01 6.372616792929292728e+01 5.677462121212121104e+01
5.039575441919191690e+01 6.383025568181817988e+01 5.683656881313131493e+01
5.048757102272727337e+01 6.396863162878787534e+01 5.692538667929292728e+01
5.052817234848485128e+01 6.410250946969696884e+01 5.701949179292929415e+01
5.061647727272727337e+01 6.425126262626262985e+01 5.714362373737373701e+01
5.071148989898989612e+01 6.440451388888888573e+01 5.725678661616161946e+01
5.069499684343434609e+01 6.448287563131313505e+01 5.728211805555555713e+01
5.052955334595959869e+01 6.421673768939393767e+01 5.702418718434343248e+01
5.019681186868687206e+01 6.366003787878787534e+01 5.664520202020202078e+01
5.000441919191919027e+01 6.323200757575757791e+01 5.644902146464646364e+01
4.993379103535353636e+01 6.304505997474747403e+01 5.638612689393939092e+01
4.994262941919191690e+01 6.297166982323232531e+01 5.640553977272727337e+01
4.991556186868687206e+01 6.292313762626262275e+01 5.640198863636363313e+01
4.994803503787878896e+01 6.294693023989898961e+01 5.641978377525252597e+01
5.004529671717171624e+01 6.302809343434343248e+01 5.652698863636363313e+01
5.001901830808080973e+01 6.309130366161615910e+01 5.653858901515151558e+01
5.007378472222222143e+01 6.313202335858586167e+01 5.655468750000000000e+01
5.008905460858586167e+01 6.316433869949494806e+01 5.658353061868687206e+01
5.010649463383838054e+01 6.320892518939393767e+01 5.662180397727272663e+01
5.019389204545454675e+01 6.331620896464646364e+01 5.669578598484848442e+01
5.030879103535353636e+01 6.347151199494949481e+01 5.677864583333333570e+01
5.031885258838384090e+01 6.363671875000000000e+01 5.685057607323232531e+01
5.041670612373737725e+01 6.374719854797979934e+01 5.695284880050505194e+01
5.053756313131312794e+01 6.390277777777777857e+01 5.703819444444444287e+01
5.057946654040404155e+01 6.403164457070707272e+01 5.711797664141413833e+01
5.061264993686868507e+01 6.419535195707071296e+01 5.720008680555555713e+01
5.071760574494949481e+01 6.432161458333332860e+01 5.728941761363636687e+01
5.079841382575757791e+01 6.445687342171717660e+01 5.738663983585858830e+01
5.090952493686868507e+01 6.458487215909090651e+01 5.746097695707070585e+01
5.096429135101010388e+01 6.473686079545454675e+01 5.756151357323232531e+01
5.105571338383838054e+01 6.487673611111111427e+01 5.764725378787878896e+01
5.111359690656565391e+01 6.502773832070707272e+01 5.774838226010101039e+01
5.105575284090909349e+01 6.494306344696970257e+01 5.762503945707070585e+01
5.069468118686868507e+01 6.448382260101010388e+01 5.726917613636363313e+01
5.047940340909090651e+01 6.398398042929292728e+01 5.696788194444444287e+01
5.029502051767676818e+01 6.366402304292929415e+01 5.682279829545454675e+01
5.025808869949494806e+01 6.354865056818182012e+01 5.679328440656565391e+01
5.025591856060606233e+01 6.343994633838384090e+01 5.676601957070707272e+01
5.018888099747474740e+01 6.335965119949494806e+01 5.672439236111111427e+01
5.019629892676767469e+01 6.336959438131312794e+01 5.674159564393939092e+01
5.024834280303030454e+01 6.347466856060606233e+01 5.681194760101010388e+01
5.027529198232323182e+01 6.352513415404040131e+01 5.684820864898989612e+01
5.028673453282828376e+01 6.355062342171716949e+01 5.683629261363636687e+01
5.033937026515151558e+01 6.360610006313131493e+01 5.684978693181817988e+01
5.038064236111111427e+01 6.365636837121212466e+01 5.688490372474747403e+01
5.046148989898989612e+01 6.379703282828283051e+01 5.698342803030303116e+01
5.053586647727272663e+01 6.390597380050505194e+01 5.705449021464646364e+01
5.060830965909090651e+01 6.403997001262625588e+01 5.712930082070707272e+01
5.067735953282828376e+01 6.417657039141414543e+01 5.723323074494949481e+01
5.074550189393939092e+01 6.427548926767676107e+01 5.728306502525252597e+01
5.084939236111111427e+01 6.445924084595959869e+01 5.739863478535353636e+01
5.088525883838384090e+01 6.456534090909090651e+01 5.745075757575757791e+01
5.087622316919191690e+01 6.468872316919191690e+01 5.748370422979797922e+01
5.098011363636363313e+01 6.484217171717172334e+01 5.759990530303030454e+01
5.108384627525252597e+01 6.497967960858585457e+01 5.770000789141413833e+01
5.117605744949494806e+01 6.510456123737374412e+01 5.779206123737373701e+01
5.123204703282828376e+01 6.527371369949494806e+01 5.789003314393939092e+01
5.131313131313131493e+01 6.538462752525252597e+01 5.798390151515151558e+01
5.136541193181817988e+01 6.553633996212121815e+01 5.804012784090909349e+01
5.130295138888888573e+01 6.553511679292928704e+01 5.799534406565656752e+01
5.103736584595959869e+01 6.515573705808080263e+01 5.765400094696969546e+01
5.079344223484848442e+01 6.464461016414141170e+01 5.732058869949494806e+01
5.066781092171716949e+01 6.432137784090909349e+01 5.715360637626262275e+01
5.058854166666666430e+01 6.416871843434343248e+01 5.710590277777777857e+01
5.056853693181817988e+01 6.408794981060606233e+01 5.706901041666666430e+01
5.051262626262626299e+01 6.399431818181817988e+01 5.702430555555555713e+01
5.057552083333333570e+01 6.398113952020202078e+01 5.702533143939393767e+01
5.056340751262626299e+01 6.404541508838383379e+01 5.704683554292929415e+01
5.062369791666666430e+01 6.410286458333332860e+01 5.709197443181817988e+01
5.063454861111111427e+01 6.412997159090909349e+01 5.710708648989898961e+01
5.065116003787878896e+01 6.414674084595959869e+01 5.711328125000000000e+01
5.067499210858586167e+01 6.421239741161616621e+01 5.716978377525252597e+01
5.067065183080808310e+01 6.429691445707071296e+01 5.720505839646464352e+01
5.077268781565656752e+01 6.440542140151515582e+01 5.730093907828283051e+01
5.089642518939393767e+01 6.454683554292928704e+01 5.737717013888888573e+01
5.088940183080808310e+01 6.465265940656566102e+01 5.744416824494949481e+01
5.098926767676767469e+01 6.477509469696970257e+01 5.751152146464646364e+01
5.108787089646464352e+01 6.493556660353534937e+01 5.762464488636363313e+01
5.114713541666666430e+01 6.504833491161616621e+01 5.768659248737373701e+01
5.120517676767676818e+01 6.518323863636364024e+01 5.777809343434343248e+01
5.123074494949494806e+01 6.530224116161616621e+01 5.783743686868687206e+01
5.128215751262626299e+01 6.542088857323231821e+01 5.791362847222222143e+01
5.138443023989898961e+01 6.554920296717172334e+01 5.797849589646464352e+01
5.139062500000000000e+01 6.569602272727273373e+01 5.803898358585858830e+01
5.149092487373737725e+01 6.582031250000000000e+01 5.813865214646464352e+01
5.154711174242424221e+01 6.595052083333332860e+01 5.822451073232323182e+01
5.162961647727272663e+01 6.607658617424242209e+01 5.829533617424242209e+01
5.166623263888888573e+01 6.619053819444444287e+01 5.835152304292929415e+01
5.157816445707070585e+01 6.610026041666667140e+01 5.820458491161615910e+01
5.123271780303030454e+01 6.563218118686869218e+01 5.780531881313131493e+01
5.108901515151514872e+01 6.517077020202020776e+01 5.753945707070707272e+01
5.094535195707070585e+01 6.492893781565656752e+01 5.742814867424242209e+01
5.087452651515151558e+01 6.480003156565656752e+01 5.737263257575757791e+01
5.089970012626262275e+01 6.476428345959595845e+01 5.735329861111111427e+01
5.088924400252525260e+01 6.470095486111111427e+01 5.733195233585858830e+01
5.088139204545454675e+01 6.471551452020202078e+01 5.736797664141413833e+01
5.091792929292929415e+01 6.475205176767676107e+01 5.739188762626262275e+01
5.092447916666666430e+01 6.479584911616161946e+01 5.740869633838384090e+01
5.091670612373737725e+01 6.479549400252524549e+01 5.741591698232323182e+01
5.090400094696969546e+01 6.480567392676768179e+01 5.741994160353535648e+01
5.097238005050505194e+01 6.485969065656566102e+01 5.745470328282828376e+01
5.098003472222222143e+01 6.493379103535353636e+01 5.751191603535353636e+01
5.107733585858586167e+01 6.502872474747475451e+01 5.758854166666666430e+01
5.107070707070707272e+01 6.511142676767676107e+01 5.763399621212121104e+01
5.118663194444444287e+01 6.521630366161616621e+01 5.768394886363636687e+01
5.121152935606060908e+01 6.530985637626262985e+01 5.774640940656565391e+01
5.128736584595959869e+01 6.546792140151515582e+01 5.784213226010101039e+01
5.136766098484848442e+01 6.557047032828282340e+01 5.791911300505050519e+01
5.142589962121212466e+01 6.566106376262625588e+01 5.797640467171716949e+01
5.144732481060606233e+01 6.577008364898989612e+01 5.802907986111111427e+01
5.149818497474747403e+01 6.588723169191919737e+01 5.810108901515151558e+01
5.151886047979797922e+01 6.599360795454545325e+01 5.814607007575757791e+01
5.160728377525252597e+01 6.611154513888888573e+01 5.821618529040404155e+01
5.169353693181817988e+01 6.621752683080808310e+01 5.829186395202020066e+01
5.169416824494949481e+01 6.635862531565656752e+01 5.833289930555555713e+01
5.172821969696969546e+01 6.637563131313130782e+01 5.832070707070707272e+01
5.151925505050505194e+01 6.605776515151515582e+01 5.804024621212121104e+01
5.119961332070707272e+01 6.556340751262625588e+01 5.768635574494949481e+01
5.109079071969696884e+01 6.521294981060606233e+01 5.750477430555555713e+01
5.099668560606060908e+01 6.504655934343433898e+01 5.742850378787878896e+01
5.099755366161615910e+01 6.497482638888888573e+01 5.740585542929292728e+01
5.096780303030303116e+01 6.493576388888888573e+01 5.740404040404040131e+01
5.099510732323232531e+01 6.494255050505050519e+01 5.743450126262626299e+01
5.104517834595959869e+01 6.500335385101010388e+01 5.747699652777777857e+01
5.105086016414141170e+01 6.504075915404040131e+01 5.748741319444444287e+01
5.105879103535353636e+01 6.503243371212121815e+01 5.749629103535353636e+01
5.102651515151514872e+01 6.502635732323231821e+01 5.748058712121212466e+01
5.102734375000000000e+01 6.506175031565656752e+01 5.750177556818182012e+01
5.111718750000000000e+01 6.511482007575757791e+01 5.753953598484848442e+01
5.115589488636363313e+01 6.522123579545454675e+01 5.763143150252525260e+01
5.119823232323232531e+01 6.529434974747475451e+01 5.768734217171716949e+01
5.117179608585858830e+01 6.537365845959595845e+01 5.773113952020202078e+01
5.126771622474747403e+01 6.549767203282827666e+01 5.780291193181817988e+01
5.128823390151514872e+01 6.560089172979797922e+01 5.786083491161615910e+01
5.136888415404040131e+01 6.567175662878787534e+01 5.792396622474747403e+01
5.148327020202020066e+01 6.581470959595959869e+01 5.802951388888888573e+01
5.151653251262626299e+01 6.592735953282827666e+01 5.807855902777777857e+01
5.154249526515151558e+01 6.602923768939393767e+01 5.812567077020202078e+01
5.158925189393939092e+01 6.612255366161616621e+01 5.819294507575757791e+01
5.167921401515151558e+01 6.622482638888888573e+01 5.823255997474747403e+01
5.174534406565656752e+01 6.633877840909090651e+01 5.831589330808080973e+01
5.178342013888888573e+01 6.648291508838383379e+01 5.840526357323232531e+01
5.182508680555555713e+01 6.653089488636364024e+01 5.839169034090909349e+01
5.148394097222222143e+01 6.619969223484848442e+01 5.804975536616161946e+01
5.119594381313131493e+01 6.560629734848484418e+01 5.762697285353535648e+01
5.098662405303030454e+01 6.516923137626262985e+01 5.737803819444444287e+01
5.091816603535353636e+01 6.495383522727273373e+01 5.732031250000000000e+01
5.084998421717171624e+01 6.480579229797979224e+01 5.725560290404040131e+01
5.083301767676767469e+01 6.467708333333332860e+01 5.719539141414141170e+01
5.079707228535353636e+01 6.461051925505050519e+01 5.717664930555555713e+01
5.082946654040404155e+01 6.462728851010101039e+01 5.720809659090909349e+01
5.085428503787878896e+01 6.466315498737374412e+01 5.724301609848485128e+01
5.085065498737373701e+01 6.467499210858585457e+01 5.724506786616161946e+01
5.085763888888888573e+01 6.466351010101010388e+01 5.723705808080808310e+01
5.085535037878787534e+01 6.467416351010101039e+01 5.725718118686868507e+01
5.087997159090909349e+01 6.472451073232323893e+01 5.729048295454545325e+01
5.094030145202020066e+01 6.479399463383838054e+01 5.733613478535353636e+01
5.100935132575757791e+01 6.487535511363635976e+01 5.743075284090909349e+01
5.106257891414141170e+01 6.500244633838383379e+01 5.750781250000000000e+01
5.109414457070707272e+01 6.509367108585858830e+01 5.755200441919191690e+01
5.117215119949494806e+01 6.519408933080808310e+01 5.762417140151514872e+01
5.119061710858586167e+01 6.527189867424242209e+01 5.767294034090909349e+01
5.122427398989898961e+01 6.539914772727273373e+01 5.777020202020202078e+01
5.127801452020202078e+01 6.553132891414141170e+01 5.783546401515151558e+01
5.132796717171716949e+01 6.561647727272726627e+01 5.789062500000000000e+01
5.136186079545454675e+01 6.572312973484848442e+01 5.796002998737373701e+01
5.148476957070707272e+01 6.583735795454545325e+01 5.803906250000000000e+01
5.155950126262626299e+01 6.594823232323231821e+01 5.809375000000000000e+01
5.158455650252525260e+01 6.606735321969696884e+01 5.814232165404040131e+01
5.160905934343434609e+01 6.619113005050505194e+01 5.822743055555555713e+01
5.163731060606060908e+01 6.626373106060606233e+01 5.825473484848485128e+01
5.153977272727272663e+01 6.608901515151515582e+01 5.806360479797979934e+01
5.121539614898989612e+01 6.553073705808080263e+01 5.761991003787878896e+01
5.084363162878787534e+01 6.498488794191919737e+01 5.726961016414141170e+01
5.079695391414141170e+01 6.467511047979797922e+01 5.713281250000000000e+01
5.073354640151514872e+01 6.448985953282827666e+01 5.703783933080808310e+01
5.063198390151514872e+01 6.434426294191919737e+01 5.697336647727272663e+01
5.061742424242424221e+01 6.426167929292928704e+01 5.696054292929292728e+01
5.065013415404040131e+01 6.425256470959595845e+01 5.697178819444444287e+01
5.063821811868687206e+01 6.430330650252524549e+01 5.701968907828283051e+01
5.062957702020202078e+01 6.431534090909090651e+01 5.703393308080808310e+01
5.061158459595959869e+01 6.432275883838383379e+01 5.704403409090909349e+01
5.067479482323232531e+01 6.434824810606060908e+01 5.704490214646464352e+01
5.067294034090909349e+01 6.438585069444444287e+01 5.709023832070707272e+01
5.074238478535353636e+01 6.444487847222222854e+01 5.712322443181817988e+01
5.080646306818182012e+01 6.456703756313130782e+01 5.722612847222222143e+01
5.087906407828283051e+01 6.467294034090909349e+01 5.731309185606060908e+01
5.093150252525252597e+01 6.475820707070707272e+01 5.736111111111111427e+01
5.100130208333333570e+01 6.490423768939393767e+01 5.745726799242424221e+01
5.102876420454545325e+01 6.497036773989898961e+01 5.749135890151514872e+01
5.111935763888888573e+01 6.511225536616161946e+01 5.761115056818182012e+01
5.114208491161615910e+01 6.522762784090909349e+01 5.767033617424242209e+01
5.124127998737373701e+01 6.534970801767676107e+01 5.774412089646464352e+01
5.129821654040404155e+01 6.545478219696970257e+01 5.781068497474747403e+01
5.133554292929292728e+01 6.556139520202020776e+01 5.786474116161615910e+01
5.135341698232323182e+01 6.566102430555555713e+01 5.792144097222222143e+01
5.147873263888888573e+01 6.578981218434343248e+01 5.801755839646464352e+01
5.154951862373737725e+01 6.592499210858585457e+01 5.808692392676767469e+01
5.160566603535353636e+01 6.608499053030303116e+01 5.816264204545454675e+01
5.159331597222222143e+01 6.611051925505050519e+01 5.817096748737373701e+01
5.136880523989898961e+01 6.581577493686869218e+01 5.783187342171716949e+01
5.097561553030303116e+01 6.522829861111111427e+01 5.741658775252525260e+01
5.082165404040404155e+01 6.482670454545454675e+01 5.717787247474747403e+01
5.073255997474747403e+01 6.462618371212121815e+01 5.712681502525252597e+01
5.072628630050505194e+01 6.456609059343433898e+01 5.711359690656565391e+01
5.069010416666666430e+01 6.450844381313130782e+01 5.709083017676767469e+01
5.071429135101010388e+01 6.449096433080808310e+01 5.711012468434343248e+01
5.070833333333333570e+01 6.453977272727273373e+01 5.713178661616161946e+01
5.078555082070707272e+01 6.457595486111111427e+01 5.717191445707070585e+01
5.074277935606060908e+01 6.458005839646465063e+01 5.717838541666666430e+01
5.079344223484848442e+01 6.457642834595959869e+01 5.718927556818182012e+01
5.077154356060606233e+01 6.459919507575757791e+01 5.719562815656565391e+01
5.084185606060606233e+01 6.465356691919191690e+01 5.723658459595959869e+01
5.089078282828283051e+01 6.474463383838383379e+01 5.730287247474747403e+01
5.091737689393939092e+01 6.484430239898989612e+01 5.737208017676767469e+01
5.094890309343434609e+01 6.495426925505050519e+01 5.744258996212121104e+01
5.104434974747474740e+01 6.506407828282827666e+01 5.751136363636363313e+01
5.107196969696969546e+01 6.515656565656566102e+01 5.757496843434343248e+01
5.119476010101010388e+01 6.526388888888888573e+01 5.766177398989898961e+01
5.118750000000000000e+01 6.537799873737374412e+01 5.770217803030303116e+01
5.127990845959595845e+01 6.551365214646465063e+01 5.777501578282828376e+01
5.128373579545454675e+01 6.561359690656566102e+01 5.783376736111111427e+01
5.139271622474747403e+01 6.573536142676768179e+01 5.791970486111111427e+01
5.146760574494949481e+01 6.586927872474747403e+01 5.799932922979797922e+01
5.153626104797979934e+01 6.599064867424242209e+01 5.807429766414141170e+01
5.155851483585858830e+01 6.613222064393939092e+01 5.815542140151514872e+01
5.157788825757575779e+01 6.616627209595959869e+01 5.811182133838384090e+01
5.129040404040404155e+01 6.579876893939393767e+01 5.777746212121212466e+01
5.098453282828283051e+01 6.525426136363635976e+01 5.736332070707070585e+01
5.080125473484848442e+01 6.489184816919191690e+01 5.714342645202020066e+01
5.070841224747474740e+01 6.471535669191919737e+01 5.707962436868687206e+01
5.069625946969696884e+01 6.465916982323231821e+01 5.704947916666666430e+01
5.070040246212121104e+01 6.459071180555555713e+01 5.703310448232323182e+01
5.071062184343434609e+01 6.459903724747475451e+01 5.705405618686868507e+01
5.078318339646464352e+01 6.464508364898989612e+01 5.709284248737373701e+01
5.077497632575757791e+01 6.469574652777777146e+01 5.714145359848485128e+01
5.083278093434343248e+01 6.473098169191919737e+01 5.715569760101010388e+01
5.077548926767676818e+01 6.473098169191919737e+01 5.715980113636363313e+01
5.077355587121212466e+01 6.477687026515151558e+01 5.717017834595959869e+01
5.089370265151514872e+01 6.485014204545454675e+01 5.722372159090909349e+01
5.088064236111111427e+01 6.495182291666667140e+01 5.730125473484848442e+01
5.095040246212121104e+01 6.507177241161616621e+01 5.737496054292929415e+01
5.100647095959595845e+01 6.517708333333332860e+01 5.745059974747474740e+01
5.105760732323232531e+01 6.528298611111111427e+01 5.752556818181817988e+01
5.119874526515151558e+01 6.541844223484848442e+01 5.761162405303030454e+01
5.117262468434343248e+01 6.551006155303029743e+01 5.765731534090909349e+01
5.125856218434343248e+01 6.564461016414141170e+01 5.772841698232323182e+01
5.133794981060606233e+01 6.575982481060606233e+01 5.778981218434343248e+01
5.138581123737373701e+01 6.589970012626262985e+01 5.785029987373737725e+01
5.140123895202020066e+01 6.599704071969696884e+01 5.789508364898989612e+01
5.146859217171716949e+01 6.613147095959595845e+01 5.799100378787878896e+01
5.158250473484848442e+01 6.624475220959595845e+01 5.808124210858586167e+01
5.164492582070707272e+01 6.638687657828282340e+01 5.811998895202020066e+01
5.165277777777777857e+01 6.650284090909090651e+01 5.818497474747474740e+01
5.163076073232323182e+01 6.647324810606060908e+01 5.808956755050505194e+01
5.127095170454545325e+01 6.601574337121212466e+01 5.762101483585858830e+01
5.097889046717171624e+01 6.545316445707071296e+01 5.719827178030303116e+01
5.078306502525252597e+01 6.503006628787878185e+01 5.701270517676767469e+01
5.070683396464646364e+01 6.486276830808080263e+01 5.695714962121212466e+01
5.069689078282828376e+01 6.476144255050505194e+01 5.692321654040404155e+01
5.065999842171716949e+01 6.465999842171717660e+01 5.687085700757575779e+01
5.060377209595959869e+01 6.459414457070707272e+01 5.685740214646464352e+01
5.067787247474747403e+01 6.462768308080808310e+01 5.690246212121212466e+01
5.067175662878787534e+01 6.469053819444444287e+01 5.695963541666666430e+01
5.069113005050505194e+01 6.469618055555555713e+01 5.694965277777777857e+01
5.070971433080808310e+01 6.471192392676768179e+01 5.694361584595959869e+01
5.074127998737373701e+01 6.472249842171717660e+01 5.697360321969696884e+01
5.075619476010101039e+01 6.479975536616161946e+01 5.698962279040404155e+01
5.079975536616161946e+01 6.490250157828282340e+01 5.706301294191919027e+01
5.084284248737373701e+01 6.499183238636364024e+01 5.712361900252525260e+01
5.093801294191919027e+01 6.510136521464646364e+01 5.721531723484848442e+01
5.097569444444444287e+01 6.520170454545454675e+01 5.728488005050505194e+01
5.103768150252525260e+01 6.532950599747475451e+01 5.733771306818182012e+01
5.107078598484848442e+01 6.545714962121212466e+01 5.739275568181817988e+01
5.116311553030303116e+01 6.556242108585858830e+01 5.749297664141413833e+01
5.120880681818182012e+01 6.568892045454545325e+01 5.754766414141413833e+01
5.126605902777777857e+01 6.579288983585858830e+01 5.760807291666666430e+01
5.132374526515151558e+01 6.590092329545454675e+01 5.769164299242424221e+01
5.136975220959595845e+01 6.600580018939393767e+01 5.774506786616161946e+01
5.143114741161615910e+01 6.613111584595959869e+01 5.779367897727272663e+01
5.148046875000000000e+01 6.624230587121212466e+01 5.786020359848485128e+01
5.151692708333333570e+01 6.636083491161616621e+01 5.789966066919191690e+01
5.163963857323232531e+01 6.650201231060606233e+01 5.799806660353535648e+01
5.149755366161615910e+01 6.639622790404040131e+01 5.783057133838384090e+01
5.112756470959595845e+01 6.589129577020202078e+01 5.734805082070707272e+01
5.080334595959595845e+01 6.534296085858585457e+01 5.697238005050505194e+01
5.068880208333333570e+01 6.498157354797979224e+01 5.679454703282828376e+01
5.062503945707070585e+01 6.479217960858585457e+01 5.674167455808080973e+01
5.058937026515151558e+01 6.467017834595959869e+01 5.670442708333333570e+01
5.052750157828283051e+01 6.454517834595959869e+01 5.665707859848485128e+01
5.053495896464646364e+01 6.458514835858585457e+01 5.667779356060606233e+01
5.054012784090909349e+01 6.461904198232323893e+01 5.673220486111111427e+01
5.061900252525252597e+01 6.465435606060606233e+01 5.676578282828283051e+01
5.061584595959595845e+01 6.466177398989898961e+01 5.677351641414141170e+01
5.061529356060606233e+01 6.466627209595959869e+01 5.677185921717171624e+01
5.061249210858586167e+01 6.469787720959595845e+01 5.679667771464646364e+01
5.072802241161615910e+01 6.476306029040404155e+01 5.686975220959595845e+01
5.071681660353535648e+01 6.485886205808080263e+01 5.693020044191919027e+01
5.083704229797979934e+01 6.496551452020202078e+01 5.700986426767676818e+01
5.085586332070707272e+01 6.507650726010101039e+01 5.706119791666666430e+01
5.088151041666666430e+01 6.520616319444444287e+01 5.710941445707070585e+01
5.093280460858586167e+01 6.529170612373737015e+01 5.716765309343434609e+01
5.098417771464646364e+01 6.537511837121212466e+01 5.723181029040404155e+01
5.104273200757575779e+01 6.548922821969696884e+01 5.731340751262626299e+01
5.114165088383838054e+01 6.562065972222222854e+01 5.734824810606060908e+01
5.122147253787878896e+01 6.573062657828282340e+01 5.747494476010101039e+01
5.127529198232323182e+01 6.587551294191919737e+01 5.754154829545454675e+01
5.131151357323232531e+01 6.600217013888888573e+01 5.758897569444444287e+01
5.138849431818182012e+01 6.611860795454545325e+01 5.768237058080808310e+01
5.141489109848485128e+01 6.621334438131313505e+01 5.773544034090909349e+01
5.150923295454545325e+01 6.634161931818181301e+01 5.780768623737373701e+01
5.156324968434343248e+01 6.646839488636364024e+01 5.786233428030303116e+01
5.152951388888888573e+01 6.644381313131313505e+01 5.776404671717171624e+01
5.112156723484848442e+01 6.594464172979797922e+01 5.728002683080808310e+01
5.081092171717171624e+01 6.537941919191919737e+01 5.690198863636363313e+01
5.066982323232323182e+01 6.500268308080808310e+01 5.672285353535353636e+01
5.063707386363636687e+01 6.480768623737374412e+01 5.668505366161615910e+01
5.058147885101010388e+01 6.473441445707071296e+01 5.664950284090909349e+01
5.057855902777777857e+01 6.467357165404040131e+01 5.664374210858586167e+01
5.055709438131312794e+01 6.467751736111111427e+01 5.667862215909090651e+01
5.065565814393939092e+01 6.473693970959595845e+01 5.671910511363636687e+01
5.067874053030303116e+01 6.475828598484848442e+01 5.673903093434343248e+01
5.069578598484848442e+01 6.475260416666667140e+01 5.673792613636363313e+01
5.062701231060606233e+01 6.473907039141414543e+01 5.672549715909090651e+01
5.065214646464646364e+01 6.472790404040404155e+01 5.673500631313131493e+01
5.068505366161615910e+01 6.480389835858585457e+01 5.677864583333333570e+01
5.071942077020202078e+01 6.489287405303029743e+01 5.684568339646464352e+01
5.075690498737373701e+01 6.498654513888888573e+01 5.691631155303030454e+01
5.081782670454545325e+01 6.507508680555555713e+01 5.694550978535353636e+01
5.085984848484848442e+01 6.520280934343433898e+01 5.706628787878787534e+01
5.093312026515151558e+01 6.532043087121212466e+01 5.712740688131312794e+01
5.089717487373737725e+01 6.536845012626262985e+01 5.710819128787878896e+01
5.107256155303030454e+01 6.553910195707071296e+01 5.724491003787878896e+01
5.108629261363636687e+01 6.562354008838383379e+01 5.728689236111111427e+01
5.114930555555555713e+01 6.572648358585858830e+01 5.737705176767676818e+01
5.120071811868687206e+01 6.584560448232323893e+01 5.741931029040404155e+01
5.126444128787878896e+01 6.597356376262625588e+01 5.749834280303030454e+01
5.136347853535353636e+01 6.611773989898989612e+01 5.757702020202020066e+01
5.138419349747474740e+01 6.620474273989898961e+01 5.762077809343434609e+01
5.118848642676767469e+01 6.601503314393939092e+01 5.737282986111111427e+01
5.081518308080808310e+01 6.544270833333332860e+01 5.688304924242424221e+01
5.052422664141413833e+01 6.487681502525252597e+01 5.654490214646464352e+01
5.043256786616161946e+01 6.455867266414141170e+01 5.641220801767676818e+01
5.037397411616161946e+01 6.444120896464646364e+01 5.638360164141413833e+01
5.038478535353535648e+01 6.435969065656566102e+01 5.637642045454545325e+01
5.034126420454545325e+01 6.432027304292928704e+01 5.639697758838384090e+01
5.037803819444444287e+01 6.433068970959595845e+01 5.643201546717171624e+01
5.040522411616161946e+01 6.437855113636364024e+01 5.646882891414141170e+01
5.040506628787878896e+01 6.441264204545454675e+01 5.648461174242424221e+01
5.040550031565656752e+01 6.441812657828282340e+01 5.649419981060606233e+01
5.043572443181817988e+01 6.439816130050505194e+01 5.647991635101010388e+01
5.045296717171716949e+01 6.443402777777777146e+01 5.650505050505050519e+01
5.052860637626262275e+01 6.449435763888888573e+01 5.658558238636363313e+01
5.053965435606060908e+01 6.461888415404040131e+01 5.664445233585858830e+01
5.064855587121212466e+01 6.474467329545454675e+01 5.671468592171716949e+01
5.069132733585858830e+01 6.485878314393939092e+01 5.680385890151514872e+01
5.076203440656565391e+01 6.499656723484848442e+01 5.688024779040404155e+01
5.082848011363636687e+01 6.509268465909090651e+01 5.691197127525252597e+01
5.085874368686868507e+01 6.518465909090909349e+01 5.696212121212121104e+01
5.089346590909090651e+01 6.531092171717172334e+01 5.705618686868687206e+01
5.098899147727272663e+01 6.541875789141414543e+01 5.712456597222222143e+01
5.099782986111111427e+01 6.554770359848484418e+01 5.718280460858586167e+01
5.103851010101010388e+01 6.566477272727273373e+01 5.723453282828283051e+01
5.118781565656565391e+01 6.583254419191919737e+01 5.735937500000000000e+01
5.124431818181817988e+01 6.595596590909090651e+01 5.744002525252525260e+01
5.129020675505050519e+01 6.604557291666667140e+01 5.746760574494949481e+01
5.125907512626262275e+01 6.604285037878787534e+01 5.740916982323232531e+01
5.086004577020202078e+01 6.556837910353534937e+01 5.694985006313131493e+01
5.055464804292929415e+01 6.492207228535353636e+01 5.649230587121212466e+01
5.029328440656565391e+01 6.442080965909090651e+01 5.623346748737373701e+01
5.021160827020202078e+01 6.416157670454545325e+01 5.617246685606060908e+01
5.013632417929292728e+01 6.399996054292929415e+01 5.612054135101010388e+01
5.009757733585858830e+01 6.386683238636363313e+01 5.605717329545454675e+01
5.007883522727272663e+01 6.381652462121212466e+01 5.606478851010101039e+01
5.012732796717171624e+01 6.384229008838384090e+01 5.610933554292929415e+01
5.013592960858586167e+01 6.387772253787878896e+01 5.614839804292929415e+01
5.018209438131312794e+01 6.389405776515151558e+01 5.614169034090909349e+01
5.013873106060606233e+01 6.388920454545454675e+01 5.614472853535353636e+01
5.018817077020202078e+01 6.392586016414141170e+01 5.617365056818182012e+01
5.019700915404040131e+01 6.396594854797979934e+01 5.621184501262626299e+01
5.028890467171716949e+01 6.408735795454545325e+01 5.632962436868687206e+01
5.030385890151514872e+01 6.417870107323231821e+01 5.639508364898989612e+01
5.045146780303030454e+01 6.429979482323231821e+01 5.648776830808080973e+01
5.043319917929292728e+01 6.443493529040404155e+01 5.655914614898989612e+01
5.059039614898989612e+01 6.457587594696970257e+01 5.663758680555555713e+01
5.063936237373737725e+01 6.469917929292928704e+01 5.674510732323232531e+01
5.070557133838384090e+01 6.482615214646465063e+01 5.679206123737373701e+01
5.079095643939393767e+01 6.494483901515151558e+01 5.687823547979797922e+01
5.080969854797979934e+01 6.509994476010101039e+01 5.695300662878787534e+01
5.085396938131312794e+01 6.521492266414141170e+01 5.703847064393939092e+01
5.093193655303030454e+01 6.536407039141414543e+01 5.709923453282828376e+01
5.098252051767676818e+01 6.549814551767676107e+01 5.719622001262626299e+01
5.105788352272727337e+01 6.563948074494949481e+01 5.729588857323232531e+01
5.109355271464646364e+01 6.575548453282827666e+01 5.732256155303030454e+01
5.110483743686868507e+01 6.579060132575757791e+01 5.727765940656565391e+01
5.083621369949494806e+01 6.538056344696970257e+01 5.684820864898989612e+01
5.042964804292929415e+01 6.475919349747475451e+01 5.640313289141413833e+01
5.021409406565656752e+01 6.421204229797979224e+01 5.615538194444444287e+01
5.011339962121212466e+01 6.394420770202020066e+01 5.605042613636363313e+01
5.003736584595959869e+01 6.378389362373737725e+01 5.601479640151514872e+01
4.999021464646464352e+01 6.368813131313131493e+01 5.596906565656565391e+01
4.998031092171716949e+01 6.366149779040404155e+01 5.599167455808080973e+01
5.002371369949494806e+01 6.367917455808080973e+01 5.603744476010101039e+01
5.005456912878787534e+01 6.374917140151514872e+01 5.607445549242424221e+01
5.005539772727272663e+01 6.373169191919191690e+01 5.605208333333333570e+01
5.003677398989898961e+01 6.370849116161615910e+01 5.605460858585858830e+01
5.008017676767676818e+01 6.376404671717171624e+01 5.610637626262626299e+01
5.012436868686868507e+01 6.382575757575757791e+01 5.615309343434343248e+01
5.019637784090909349e+01 6.394069602272727337e+01 5.625335385101010388e+01
5.023615056818182012e+01 6.405733112373737015e+01 5.633574021464646364e+01
5.034371054292929415e+01 6.416473327020202078e+01 5.639153251262626299e+01
5.044578598484848442e+01 6.429569128787878185e+01 5.650213068181817988e+01
5.044629892676767469e+01 6.440400094696970257e+01 5.655062342171716949e+01
5.053472222222222143e+01 6.452825126262625588e+01 5.664362373737373701e+01
5.061339962121212466e+01 6.465238320707071296e+01 5.670273042929292728e+01
5.061923926767676818e+01 6.477801452020202078e+01 5.677185921717171624e+01
5.070632102272727337e+01 6.490265940656566102e+01 5.683952809343434609e+01
5.077627840909090651e+01 6.501302083333332860e+01 5.689449179292929415e+01
5.086261047979797922e+01 6.516911300505050519e+01 5.696677714646464352e+01
5.088687657828283051e+01 6.527402935606060908e+01 5.704028566919191690e+01
5.099416035353535648e+01 6.545470328282827666e+01 5.711742424242424221e+01
5.090352746212121104e+01 6.541568023989898961e+01 5.706198705808080973e+01
5.056123737373737725e+01 6.493197601010101039e+01 5.659201388888888573e+01
5.026238952020202078e+01 6.433057133838383379e+01 5.619704861111111427e+01
5.002426609848485128e+01 6.386549084595959869e+01 5.598212594696969546e+01
4.996579071969696884e+01 6.368880208333333570e+01 5.594527304292929415e+01
4.997159090909090651e+01 6.361347853535353636e+01 5.594255050505050519e+01
4.993943339646464352e+01 6.358668718434343248e+01 5.594921875000000000e+01
4.997226167929292728e+01 6.359615688131312794e+01 5.599940814393939092e+01
5.000729955808080973e+01 6.367775410353535648e+01 5.605306976010101039e+01
5.004075915404040131e+01 6.372604955808080973e+01 5.607358743686868507e+01
5.006818181818182012e+01 6.372537878787878896e+01 5.608648989898989612e+01
5.006782670454545325e+01 6.373922821969696884e+01 5.608171559343434609e+01
5.007848011363636687e+01 6.376897885101010388e+01 5.611667455808080973e+01
5.014512310606060908e+01 6.386150568181817988e+01 5.617984532828283051e+01
5.021969696969696884e+01 6.398516414141413833e+01 5.628409090909090651e+01
5.029541508838384090e+01 6.410333806818181301e+01 5.638411458333333570e+01
5.032674400252525260e+01 6.423583491161616621e+01 5.646468592171716949e+01
5.045154671717171624e+01 6.434532828282827666e+01 5.651420454545454675e+01
5.052485795454545325e+01 6.447403724747475451e+01 5.659698547979797922e+01
5.058862058080808310e+01 6.460203598484848442e+01 5.667653093434343248e+01
5.058696338383838054e+01 6.472395833333332860e+01 5.671117424242424221e+01
5.064709595959595845e+01 6.484469696969696884e+01 5.678156565656565391e+01
5.065076546717171624e+01 6.495995107323231821e+01 5.686020359848485128e+01
5.078945707070707272e+01 6.509990530303029743e+01 5.695422979797979934e+01
5.081908933080808310e+01 6.520576862373737015e+01 5.698733428030303116e+01
5.081577493686868507e+01 6.532413983585858830e+01 5.703657670454545325e+01
5.068923611111111427e+01 6.513667929292928704e+01 5.678140782828283051e+01
5.031601167929292728e+01 6.451882102272726627e+01 5.629202178030303116e+01
4.996050347222222143e+01 6.390194917929292728e+01 5.594408933080808310e+01
4.982271938131312794e+01 6.351195549242424221e+01 5.579320549242424221e+01
4.972044665404040131e+01 6.334560448232323182e+01 5.572376104797979934e+01
4.973682133838384090e+01 6.326444128787878896e+01 5.572182765151514872e+01
4.970450599747474740e+01 6.320466382575757791e+01 5.569377367424242209e+01
4.975003945707070585e+01 6.321026672979797922e+01 5.573220486111111427e+01
4.974554135101010388e+01 6.326905776515151558e+01 5.577616003787878896e+01
4.979651988636363313e+01 6.330535827020202078e+01 5.580283301767676818e+01
4.979190340909090651e+01 6.330973800505050519e+01 5.579663825757575779e+01
4.979099589646464352e+01 6.333802872474747403e+01 5.580835700757575779e+01
4.985247001262626299e+01 6.337788036616161946e+01 5.586257102272727337e+01
4.989208491161615910e+01 6.347794349747474740e+01 5.593532986111111427e+01
4.995032354797979934e+01 6.361399147727272663e+01 5.601708491161615910e+01
5.006798453282828376e+01 6.374333175505050519e+01 5.610112847222222143e+01
5.014985795454545325e+01 6.389196654040404155e+01 5.621456755050505194e+01
5.023950441919191690e+01 6.403101325757575069e+01 5.626980744949494806e+01
5.023859690656565391e+01 6.409639362373737015e+01 5.630583175505050519e+01
5.033802872474747403e+01 6.423275726010101039e+01 5.641220801767676818e+01
5.037310606060606233e+01 6.437121212121212466e+01 5.646511994949494806e+01
5.041485164141413833e+01 6.447451073232323893e+01 5.650733901515151558e+01
5.048962279040404155e+01 6.463608743686869218e+01 5.662188289141413833e+01
5.061659564393939092e+01 6.478894412878787534e+01 5.671839488636363313e+01
5.066248421717171624e+01 6.493615845959595845e+01 5.678795770202020066e+01
5.074747474747474740e+01 6.506013257575757791e+01 5.686253156565656752e+01
5.082074652777777857e+01 6.519606218434343248e+01 5.690581597222222143e+01
5.067732007575757791e+01 6.508420138888888573e+01 5.676065340909090651e+01
5.027185921717171624e+01 6.449297664141414543e+01 5.622056502525252597e+01
4.989930555555555713e+01 6.380808080808080973e+01 5.581976010101010388e+01
4.971042455808080973e+01 6.337898516414141170e+01 5.563908617424242209e+01
4.960617897727272663e+01 6.314989741161615910e+01 5.555251736111111427e+01
4.953105271464646364e+01 6.301811079545454675e+01 5.549822443181817988e+01
4.948646622474747403e+01 6.289034880050505194e+01 5.543485637626262275e+01
4.948161300505050519e+01 6.287255366161615910e+01 5.545857007575757791e+01
4.958195233585858830e+01 6.295521622474747403e+01 5.550856218434343248e+01
4.960755997474747403e+01 6.302343750000000000e+01 5.556399936868687206e+01
4.959891887626262275e+01 6.302331912878787534e+01 5.555772569444444287e+01
4.962125157828283051e+01 6.305748895202020066e+01 5.558195233585858830e+01
4.962255366161615910e+01 6.313944128787878896e+01 5.563123421717171624e+01
4.968710542929292728e+01 6.322419507575757791e+01 5.567747790404040131e+01
4.980800189393939092e+01 6.336166351010101039e+01 5.577327967171716949e+01
4.986513573232323182e+01 6.346346275252525260e+01 5.586292613636363313e+01
4.994629892676767469e+01 6.362006786616161946e+01 5.595624210858586167e+01
5.002493686868687206e+01 6.376736111111111427e+01 5.605129419191919027e+01
5.016749526515151558e+01 6.392159880050505194e+01 5.613940183080808310e+01
5.017002051767676818e+01 6.403018465909090651e+01 5.622273516414141170e+01
5.026586174242424221e+01 6.420225694444444287e+01 5.629537563131312794e+01
5.031940498737373701e+01 6.433960700757575069e+01 5.635870422979797922e+01
5.038849431818182012e+01 6.444815340909090651e+01 5.642369002525252597e+01
5.044223484848485128e+01 6.459217171717172334e+01 5.652351641414141170e+01
5.053949652777777857e+01 6.474435763888888573e+01 5.659489425505050519e+01
5.058648989898989612e+01 6.489646464646465063e+01 5.668923611111111427e+01
5.065909090909090651e+01 6.503898358585858830e+01 5.677020202020202078e+01
5.072013099747474740e+01 6.516741635101010388e+01 5.681403882575757791e+01
5.069034090909090651e+01 6.517660984848484418e+01 5.677746212121212466e+01
5.038498263888888573e+01 6.473709753787878185e+01 5.633700284090909349e+01
4.996946022727272663e+01 6.406321022727273373e+01 5.586213699494949481e+01
4.977008364898989612e+01 6.353933869949494806e+01 5.563514046717171624e+01
4.966335227272727337e+01 6.330318813131312794e+01 5.555602904040404155e+01
4.961592487373737725e+01 6.319610164141413833e+01 5.551333648989898961e+01
4.959371054292929415e+01 6.310207544191919027e+01 5.546776357323232531e+01
4.956273674242424221e+01 6.307915088383838054e+01 5.545888573232323182e+01
4.963273358585858830e+01 6.313052398989898961e+01 5.552304292929292728e+01
4.966090593434343248e+01 6.318079229797979934e+01 5.554805871212121104e+01
4.966074810606060908e+01 6.318600063131312794e+01 5.554048295454545325e+01
4.963348327020202078e+01 6.318241003787878896e+01 5.553736584595959869e+01
4.967641256313131493e+01 6.321444917929292728e+01 5.558360953282828376e+01
4.973591382575757791e+01 6.330914614898989612e+01 5.562890625000000000e+01
4.982548137626262275e+01 6.343264678030303116e+01 5.571484375000000000e+01
4.983660827020202078e+01 6.358313604797979934e+01 5.577268781565656752e+01
4.997774621212121104e+01 6.371054292929292728e+01 5.588068181818182012e+01
5.002391098484848442e+01 6.383136047979797922e+01 5.595178345959595845e+01
5.011115056818182012e+01 6.397352430555555713e+01 5.603949652777777857e+01
5.013304924242424221e+01 6.412263257575757791e+01 5.613226010101010388e+01
5.022526041666666430e+01 6.424798768939393767e+01 5.619653566919191690e+01
5.033652935606060908e+01 6.440960385101010388e+01 5.630180713383838054e+01
5.041212910353535648e+01 6.454991319444444287e+01 5.637046243686868507e+01
5.041252367424242209e+01 6.466410195707071296e+01 5.645024463383838054e+01
5.051779513888888573e+01 6.480062342171717660e+01 5.652000473484848442e+01
5.053416982323232531e+01 6.494089330808080263e+01 5.658183396464646364e+01
5.062701231060606233e+01 6.505725220959595845e+01 5.662590751262626299e+01
5.061588541666666430e+01 6.509157986111111427e+01 5.661383364898989612e+01
5.034895833333333570e+01 6.471275252525252597e+01 5.621922348484848442e+01
4.993813131313131493e+01 6.410400883838383379e+01 5.577998737373737725e+01
4.976069286616161946e+01 6.366378630050505194e+01 5.559592013888888573e+01
4.972080176767676818e+01 6.346338383838384090e+01 5.555713383838384090e+01
4.969673295454545325e+01 6.339701704545454675e+01 5.551854482323232531e+01
4.971851325757575779e+01 6.337476325757575779e+01 5.553874684343434609e+01
4.970746527777777857e+01 6.340475063131312794e+01 5.556747159090909349e+01
4.983313604797979934e+01 6.350927241161615910e+01 5.566962594696969546e+01
4.983960700757575779e+01 6.359339488636363313e+01 5.570229640151514872e+01
4.984978693181817988e+01 6.359552556818182012e+01 5.568627683080808310e+01
4.984090909090909349e+01 6.359832702020202078e+01 5.569018308080808310e+01
4.987740688131312794e+01 6.365155460858586167e+01 5.573252051767676818e+01
4.994219539141413833e+01 6.371381786616161946e+01 5.579636205808080973e+01
4.996263415404040131e+01 6.384189551767676818e+01 5.587361900252525260e+01
5.009682765151514872e+01 6.400891729797979224e+01 5.598334911616161946e+01
5.011608270202020066e+01 6.413391729797979224e+01 5.602138573232323182e+01
5.025252525252525260e+01 6.430366161616161946e+01 5.612736742424242209e+01
5.026740056818182012e+01 6.441039299242424931e+01 5.617254577020202078e+01
5.035858585858586167e+01 6.456202651515151558e+01 5.624005681818182012e+01
5.038198390151514872e+01 6.466307607323231821e+01 5.633684501262626299e+01
5.052564709595959869e+01 6.480516098484848442e+01 5.639607007575757791e+01
5.048690025252525260e+01 6.492361111111111427e+01 5.644097222222222143e+01
5.060333806818182012e+01 6.505235953282827666e+01 5.652221433080808310e+01
5.070280934343434609e+01 6.519144570707071296e+01 5.660416666666666430e+01
5.074526515151514872e+01 6.532559974747475451e+01 5.667203282828283051e+01
5.074648832070707272e+01 6.542294034090909349e+01 5.670797821969696884e+01
5.055520044191919027e+01 6.518840751262625588e+01 5.644408933080808310e+01
5.013908617424242209e+01 6.451329703282827666e+01 5.592223011363636687e+01
4.984919507575757791e+01 6.388517992424242209e+01 5.556731376262626299e+01
4.970024463383838054e+01 6.351337594696969546e+01 5.543619791666666430e+01
4.960531092171716949e+01 6.334284248737373701e+01 5.538782354797979934e+01
4.957196969696969546e+01 6.322758838383838054e+01 5.534595959595959869e+01
4.954016729797979934e+01 6.315127840909090651e+01 5.530958017676767469e+01
4.950702335858586167e+01 6.312728851010101039e+01 5.530626578282828376e+01
4.959848484848485128e+01 6.316887626262626299e+01 5.536379419191919027e+01
4.962215909090909349e+01 6.321306818181817988e+01 5.539520202020202078e+01
4.960724431818182012e+01 6.324944760101010388e+01 5.539212436868687206e+01
4.963478535353535648e+01 6.328456439393939092e+01 5.540467171717171624e+01
4.965411931818182012e+01 6.332899305555555713e+01 5.545099431818182012e+01
4.977584438131312794e+01 6.346050347222222143e+01 5.556072443181817988e+01
4.984094854797979934e+01 6.358763415404040131e+01 5.565344854797979934e+01
4.991682449494949481e+01 6.372080176767676818e+01 5.571875000000000000e+01
5.000923295454545325e+01 6.387539457070707272e+01 5.580737058080808310e+01
5.005283301767676818e+01 6.401684816919191690e+01 5.588900726010101039e+01
5.015707859848485128e+01 6.416623263888888573e+01 5.594748263888888573e+01
5.019870580808080973e+01 6.426862373737374412e+01 5.599889520202020066e+01
5.027035984848485128e+01 6.441382575757575069e+01 5.608159722222222143e+01
5.029525726010101039e+01 6.452726483585858830e+01 5.617104640151514872e+01
5.042424242424242209e+01 6.467645202020202078e+01 5.623910984848485128e+01
5.037385574494949481e+01 6.479604640151515582e+01 5.629336332070707272e+01
5.047166982323232531e+01 6.490538194444444287e+01 5.637223800505050519e+01
5.057954545454545325e+01 6.506486742424242209e+01 5.648200757575757791e+01
5.069152462121212466e+01 6.519026199494949481e+01 5.654016729797979934e+01
5.065230429292929415e+01 6.523169191919191690e+01 5.652335858585858830e+01
5.036817392676767469e+01 6.480772569444444287e+01 5.611091382575757791e+01
4.990546085858586167e+01 6.404008838383838054e+01 5.557812500000000000e+01
4.961837121212121104e+01 6.346259469696969546e+01 5.529624368686868507e+01
4.949913194444444287e+01 6.314970012626262275e+01 5.519231376262626299e+01
4.939133522727272663e+01 6.296235795454545325e+01 5.513391729797979934e+01
4.931297348484848442e+01 6.284138257575757791e+01 5.508822601010101039e+01
4.935755997474747403e+01 6.277975063131312794e+01 5.510156250000000000e+01
4.935120738636363313e+01 6.281758996212121104e+01 5.511683238636363313e+01
4.942550505050505194e+01 6.289220328282828376e+01 5.517503156565656752e+01
4.946926294191919027e+01 6.294322127525252597e+01 5.521705334595959869e+01
4.949680397727272663e+01 6.298165246212121104e+01 5.524522569444444287e+01
4.951108743686868507e+01 6.305464804292929415e+01 5.529028566919191690e+01
4.955950126262626299e+01 6.311931818181817988e+01 5.533617424242424221e+01
4.965360637626262275e+01 6.324435763888888573e+01 5.544637784090909349e+01
4.980089962121212466e+01 6.340585542929292728e+01 5.554316603535353636e+01
4.984260574494949481e+01 6.353247316919191690e+01 5.563727114898989612e+01
4.996859217171716949e+01 6.369002525252525260e+01 5.573200757575757791e+01
4.998259943181817988e+01 6.381056660353535648e+01 5.580614741161615910e+01
5.006032986111111427e+01 6.399088541666666430e+01 5.589713541666666430e+01
5.012752525252525260e+01 6.414109848484848442e+01 5.597001262626262275e+01
5.022608901515151558e+01 6.427927714646465063e+01 5.604869002525252597e+01
5.026282354797979934e+01 6.441370738636364024e+01 5.613103693181817988e+01
5.040400094696969546e+01 6.454857165404040131e+01 5.621444917929292728e+01
5.046882891414141170e+01 6.470178345959595845e+01 5.630642361111111427e+01
5.058057133838384090e+01 6.486261047979797922e+01 5.640080492424242209e+01
5.062807765151514872e+01 6.500370896464646364e+01 5.646693497474747403e+01
5.063770517676767469e+01 6.516848169191919737e+01 5.651444128787878896e+01
5.059923453282828376e+01 6.518651357323231821e+01 5.649696180555555713e+01
5.032942708333333570e+01 6.472052556818181301e+01 5.605070233585858830e+01
4.993919665404040131e+01 6.402284564393939092e+01 5.563143150252525260e+01
4.971160827020202078e+01 6.355867266414141170e+01 5.543588226010101039e+01
4.958092645202020066e+01 6.331119791666666430e+01 5.535933554292929415e+01
4.957840119949494806e+01 6.324001736111111427e+01 5.534686710858586167e+01
4.952470012626262275e+01 6.314559659090909349e+01 5.534540719696969546e+01
4.957536300505050519e+01 6.314038825757575779e+01 5.536040088383838054e+01
4.960400883838384090e+01 6.319586489898989612e+01 5.543308080808080973e+01
4.967625473484848442e+01 6.328263099747474740e+01 5.548149463383838054e+01
4.967254577020202078e+01 6.331380208333333570e+01 5.549341066919191690e+01
4.968146306818182012e+01 6.333566130050505194e+01 5.550690498737373701e+01
4.970375631313131493e+01 6.338478535353535648e+01 5.553424873737373701e+01
4.977836963383838054e+01 6.348796559343434609e+01 5.559655145202020066e+01
4.986639835858586167e+01 6.361876578282828376e+01 5.570115214646464352e+01
4.995553188131312794e+01 6.373993844696969546e+01 5.577623895202020066e+01
5.001700599747474740e+01 6.390510574494949481e+01 5.586438604797979934e+01
5.008566130050505194e+01 6.403294665404040131e+01 5.593193655303030454e+01
5.014776672979797922e+01 6.416986268939393767e+01 5.602024147727272663e+01
5.021484375000000000e+01 6.426803188131313505e+01 5.604817708333333570e+01
5.025860164141413833e+01 6.441627209595959869e+01 5.614228219696969546e+01
5.031897095959595845e+01 6.453125000000000000e+01 5.619191919191919027e+01
5.034599905303030454e+01 6.466465435606060908e+01 5.627860637626262275e+01
5.049609375000000000e+01 6.478207859848484418e+01 5.633258364898989612e+01
5.053156565656565391e+01 6.491792929292928704e+01 5.640356691919191690e+01
5.065782828282828376e+01 6.509580176767676107e+01 5.650883838383838054e+01
5.066895517676767469e+01 6.520351957070707272e+01 5.654711174242424221e+01
5.051941287878787534e+01 6.502004419191919737e+01 5.635306186868687206e+01
5.014847695707070585e+01 6.444866635101010388e+01 5.591662720959595845e+01
4.981585385101010388e+01 6.388324652777777857e+01 5.557485006313131493e+01
4.971638257575757791e+01 6.354434974747474740e+01 5.546054292929292728e+01
4.968505366161615910e+01 6.343095012626262275e+01 5.546330492424242209e+01
4.968375157828283051e+01 6.338719223484848442e+01 5.545789930555555713e+01
4.968907828282828376e+01 6.340088383838384090e+01 5.548042929292929415e+01
4.976448074494949481e+01 6.349159564393939092e+01 5.555883049242424221e+01
4.983368844696969546e+01 6.358747632575757791e+01 5.563182607323232531e+01
4.979292929292929415e+01 6.363762626262626299e+01 5.564804292929292728e+01
4.984994476010101039e+01 6.363040561868687206e+01 5.565881470959595845e+01
4.984682765151514872e+01 6.365932765151514872e+01 5.566027462121212466e+01
4.991453598484848442e+01 6.374976325757575779e+01 5.572561553030303116e+01
4.995087594696969546e+01 6.386754261363636687e+01 5.581104008838384090e+01
5.004269255050505194e+01 6.401870265151515582e+01 5.588297032828283051e+01
5.014307133838384090e+01 6.415380366161616621e+01 5.598145517676767469e+01
5.018726325757575779e+01 6.427769886363635976e+01 5.604079861111111427e+01
5.031778724747474740e+01 6.444089330808080263e+01 5.615048926767676818e+01
5.029375789141413833e+01 6.454344223484848442e+01 5.619985006313131493e+01
5.041193181818182012e+01 6.469681186868686495e+01 5.625299873737373701e+01
5.047948232323232531e+01 6.480744949494949481e+01 5.634564393939393767e+01
5.049167455808080973e+01 6.490707859848484418e+01 5.636525410353535648e+01
5.059706439393939092e+01 6.504940025252524549e+01 5.645880681818182012e+01
5.063529829545454675e+01 6.516907354797979224e+01 5.650950915404040131e+01
5.070332228535353636e+01 6.533447758838383379e+01 5.661777935606060908e+01
5.073547979797979934e+01 6.544286616161616621e+01 5.667897727272727337e+01
5.077616003787878896e+01 6.549869791666667140e+01 5.666015625000000000e+01
5.044752209595959869e+01 6.508909406565656752e+01 5.627122790404040131e+01
5.009564393939393767e+01 6.444586489898989612e+01 5.581439393939393767e+01
4.983211016414141170e+01 6.391765309343434609e+01 5.554880839646464352e+01
4.971867108585858830e+01 6.361008522727272663e+01 5.543205492424242209e+01
4.965924873737373701e+01 6.345849116161615910e+01 5.542077020202020066e+01
4.961438604797979934e+01 6.333108428030303116e+01 5.535791508838384090e+01
4.958830492424242209e+01 6.329963699494949481e+01 5.534303977272727337e+01
4.963285195707070585e+01 6.332461332070707272e+01 5.537275094696969546e+01
4.961296559343434609e+01 6.339311079545454675e+01 5.542120422979797922e+01
4.967862215909090651e+01 6.341994160353535648e+01 5.543777619949494806e+01
4.968560606060606233e+01 6.344207702020202078e+01 5.543939393939393767e+01
4.970876736111111427e+01 6.347376104797979934e+01 5.546729008838384090e+01
4.972601010101010388e+01 6.357275883838384090e+01 5.553409090909090651e+01
4.986111111111111427e+01 6.367708333333333570e+01 5.562342171717171624e+01
4.992337436868687206e+01 6.383246527777777857e+01 5.570572916666666430e+01
5.002047821969696884e+01 6.397865372474747403e+01 5.577426609848485128e+01
5.009552556818182012e+01 6.411572758838383379e+01 5.584805082070707272e+01
5.012014678030303116e+01 6.424293718434343248e+01 5.591465435606060908e+01
5.017534722222222143e+01 6.436410984848484418e+01 5.599700126262626299e+01
5.030559501262626299e+01 6.450903566919191690e+01 5.608700284090909349e+01
5.034955018939393767e+01 6.461927872474747403e+01 5.614358428030303116e+01
5.039109848484848442e+01 6.475015782828282340e+01 5.622727272727272663e+01
5.046819760101010388e+01 6.489417613636364024e+01 5.628385416666666430e+01
5.052702809343434609e+01 6.501613794191919737e+01 5.638135258838384090e+01
5.057780934343434609e+01 6.515719696969696884e+01 5.644681186868687206e+01
5.070024463383838054e+01 6.530046559343433898e+01 5.654068023989898961e+01
5.070525568181817988e+01 6.542763573232323893e+01 5.660187815656565391e+01
5.072802241161615910e+01 6.545908301767676107e+01 5.660002367424242209e+01
5.045896464646464352e+01 6.512894570707071296e+01 5.625962752525252597e+01
5.009335542929292728e+01 6.445999053030303116e+01 5.574550189393939092e+01
4.977473958333333570e+01 6.392609690656565391e+01 5.547328756313131493e+01
4.969629892676767469e+01 6.364973958333333570e+01 5.538016887626262275e+01
4.962551294191919027e+01 6.349956597222222143e+01 5.532264046717171624e+01
4.966133996212121104e+01 6.343990688131312794e+01 5.530843592171716949e+01
4.962298768939393767e+01 6.338119476010101039e+01 5.530812026515151558e+01
4.961470170454545325e+01 6.341047190656565391e+01 5.533629261363636687e+01
4.969625946969696884e+01 6.351365214646464352e+01 5.541279987373737725e+01
4.972194602272727337e+01 6.356064551767676818e+01 5.543627683080808310e+01
4.967881944444444287e+01 6.359264520202020066e+01 5.541808712121212466e+01
4.972849589646464352e+01 6.364342645202020066e+01 5.546145044191919027e+01
4.981013257575757791e+01 6.370186237373737725e+01 5.553503787878787534e+01
4.993568497474747403e+01 6.382946654040404155e+01 5.560945391414141170e+01
4.996977588383838054e+01 6.394925820707070585e+01 5.570241477272727337e+01
5.003436710858586167e+01 6.409655145202020776e+01 5.578484059343434609e+01
5.009051452020202078e+01 6.422040719696970257e+01 5.585172032828283051e+01
5.017653093434343248e+01 6.436245265151515582e+01 5.594231376262626299e+01
5.022056502525252597e+01 6.445430871212121815e+01 5.596835542929292728e+01
5.031999684343434609e+01 6.460440340909090651e+01 5.606163194444444287e+01
5.037042297979797922e+01 6.473248106060606233e+01 5.613383838383838054e+01
5.042657039141413833e+01 6.485491635101010388e+01 5.618872316919191690e+01
5.048279671717171624e+01 6.498563762626262985e+01 5.628929924242424221e+01
5.053286773989898961e+01 6.508242582070707272e+01 5.632500789141413833e+01
5.057804608585858830e+01 6.525639204545454675e+01 5.641469381313131493e+01
5.068308080808080973e+01 6.535558712121212466e+01 5.649179292929292728e+01
5.077761994949494806e+01 6.553488005050505194e+01 5.662831439393939092e+01
5.081553819444444287e+01 6.563908617424242209e+01 5.666323390151514872e+01
5.062594696969696884e+01 6.542787247474747403e+01 5.643655303030303116e+01
5.022510258838384090e+01 6.484552556818181301e+01 5.595916193181817988e+01
4.995620265151514872e+01 6.427233270202020776e+01 5.559351325757575779e+01
4.987760416666666430e+01 6.396772411616161946e+01 5.547924558080808310e+01
4.981857638888888573e+01 6.383641098484848442e+01 5.542858270202020066e+01
4.978353851010101039e+01 6.375071022727272663e+01 5.543205492424242209e+01
4.976964962121212466e+01 6.373745265151514872e+01 5.542889835858586167e+01
4.981214488636363313e+01 6.376700599747474740e+01 5.546886837121212466e+01
4.983944917929292728e+01 6.383376736111111427e+01 5.551763731060606233e+01
4.985740214646464352e+01 6.386971275252525260e+01 5.553022411616161946e+01
4.985349589646464352e+01 6.387117266414141170e+01 5.554383680555555713e+01
4.989240056818182012e+01 6.390707859848485128e+01 5.556727430555555713e+01
4.991820549242424221e+01 6.396113478535353636e+01 5.560665246212121104e+01
4.996725063131312794e+01 6.407125946969696884e+01 5.565601325757575779e+01
5.004064078282828376e+01 6.414906881313130782e+01 5.573982007575757791e+01
5.008925189393939092e+01 6.429963699494949481e+01 5.582394255050505194e+01
5.014816130050505194e+01 6.442972695707071296e+01 5.592593907828283051e+01
5.026211332070707272e+01 6.452584438131313505e+01 5.597691761363636687e+01
5.033392518939393767e+01 6.466441761363635976e+01 5.604920296717171624e+01
5.038016887626262275e+01 6.477426609848484418e+01 5.609939236111111427e+01
5.037859059343434609e+01 6.487432922979797922e+01 5.616678503787878896e+01
5.046216066919191690e+01 6.500209122474747403e+01 5.622336647727272663e+01
5.051586174242424221e+01 6.513249684343433898e+01 5.629648042929292728e+01
5.062121212121212466e+01 6.526294191919191690e+01 5.638478535353535648e+01
5.066137941919191690e+01 6.538817866161616621e+01 5.646819760101010388e+01
5.069314236111111427e+01 6.549932922979797922e+01 5.652694917929292728e+01
5.071729008838384090e+01 6.552410827020202078e+01 5.650832544191919027e+01
5.043035827020202078e+01 6.511675347222222854e+01 5.611407039141413833e+01
5.004257417929292728e+01 6.449001736111111427e+01 5.567767518939393767e+01
4.983203125000000000e+01 6.401842645202020776e+01 5.542357165404040131e+01
4.975453756313131493e+01 6.379667771464646364e+01 5.535775726010101039e+01
4.969614109848485128e+01 6.368383049242424221e+01 5.530456912878787534e+01
4.966220801767676818e+01 6.363285195707070585e+01 5.530377998737373701e+01
4.967507102272727337e+01 6.359615688131312794e+01 5.529943970959595845e+01
4.970162563131312794e+01 6.367179608585858830e+01 5.534130366161615910e+01
4.978910195707070585e+01 6.376227114898989612e+01 5.542041508838384090e+01
4.978732638888888573e+01 6.378922032828283051e+01 5.544199810606060908e+01
4.983037405303030454e+01 6.380164930555555713e+01 5.544085385101010388e+01
4.982982165404040131e+01 6.383550347222222143e+01 5.547502367424242209e+01
4.989094065656565391e+01 6.392692550505050519e+01 5.554687500000000000e+01
4.997656250000000000e+01 6.406115845959595845e+01 5.564543876262626299e+01
5.006005366161615910e+01 6.420052083333332860e+01 5.571851325757575779e+01
5.012835385101010388e+01 6.433400410353534937e+01 5.581538036616161946e+01
5.022186710858586167e+01 6.445513731060606233e+01 5.590510574494949481e+01
5.023224431818182012e+01 6.459446022727273373e+01 5.594404987373737725e+01
5.032394255050505194e+01 6.471677714646465063e+01 5.602501578282828376e+01
5.039496527777777857e+01 6.485487689393939092e+01 5.612602588383838054e+01
5.047174873737373701e+01 6.497332702020202078e+01 5.617613636363636687e+01
5.053555082070707272e+01 6.510688920454545325e+01 5.626771622474747403e+01
5.058763415404040131e+01 6.523788667929292728e+01 5.633337279040404155e+01
5.063766571969696884e+01 6.533526672979797922e+01 5.641023516414141170e+01
5.075883838383838054e+01 6.550726010101010388e+01 5.652509469696969546e+01
5.076704545454545325e+01 6.562642045454545325e+01 5.657796717171716949e+01
5.082848011363636687e+01 6.575840435606060908e+01 5.665628945707070585e+01
5.077489741161615910e+01 6.574475220959595845e+01 5.660065498737373701e+01
5.042747790404040131e+01 6.521835542929292728e+01 5.612507891414141170e+01
5.003345959595959869e+01 6.453724747474747403e+01 5.564283459595959869e+01
4.983901515151514872e+01 6.402919823232323893e+01 5.539535984848485128e+01
4.974388415404040131e+01 6.379454703282828376e+01 5.532548137626262275e+01
4.966402304292929415e+01 6.364034880050505194e+01 5.527118844696969546e+01
4.956707702020202078e+01 6.348563762626262275e+01 5.520312500000000000e+01
4.959730113636363313e+01 6.344610164141413833e+01 5.519247159090909349e+01
4.961683238636363313e+01 6.348772885101010388e+01 5.522857481060606233e+01
