5.433258364898989612e+01 5.426818970959595845e+01 6.828981218434343248e+01
5.433065025252525260e+01 5.441256313131312794e+01 6.842440025252524549e+01
5.446437026515151558e+01 5.446074021464646364e+01 6.853507733585858830e+01
5.460045770202020066e+01 5.461497790404040131e+01 6.867763573232323893e+01
5.472597064393939092e+01 5.471397569444444287e+01 6.870908301767676107e+01
5.468663194444444287e+01 5.487602588383838054e+01 6.879695391414141170e+01
5.477414772727272663e+01 5.497253787878787534e+01 6.888936237373737015e+01
5.477943497474747403e+01 5.514591224747474740e+01 6.894594381313130782e+01
5.484307922979797922e+01 5.525990372474747403e+01 6.902584438131313505e+01
5.495766256313131493e+01 5.540052872474747403e+01 6.913663983585858830e+01
5.505958017676767469e+01 5.556605113636363313e+01 6.927217487373737015e+01
5.513624526515151558e+01 5.570474273989898961e+01 6.938403566919191690e+01
5.528511679292929415e+01 5.587649936868687206e+01 6.950733901515151558e+01
5.532236426767676818e+01 5.603038194444444287e+01 6.961308396464646364e+01
5.543355429292929415e+01 5.616587752525252597e+01 6.972174873737374412e+01
5.548259943181817988e+01 5.628752367424242209e+01 6.979951862373737015e+01
5.558909406565656752e+01 5.643189709595959869e+01 6.990790719696970257e+01
5.566568023989898961e+01 5.656435448232323182e+01 6.999522569444444287e+01
5.576712436868687206e+01 5.675670770202020066e+01 7.010156250000000000e+01
5.580046559343434609e+01 5.684386837121212466e+01 7.018398832070707272e+01
5.586264993686868507e+01 5.698417771464646364e+01 7.023875473484848442e+01
5.595553188131312794e+01 5.712093592171716949e+01 7.034568339646465063e+01
5.595825441919191690e+01 5.716343118686868507e+01 7.037618371212121815e+01
5.558175505050505194e+01 5.667171717171716949e+01 6.989772727272726627e+01
5.503712910353535648e+01 5.586178188131312794e+01 6.924609375000000000e+01
5.474013573232323182e+01 5.526538825757575779e+01 6.882836174242424931e+01
5.461079545454545325e+01 5.503203914141413833e+01 6.869791666666667140e+01
5.457457386363636687e+01 5.499250315656565391e+01 6.869057765151515582e+01
5.464318970959595845e+01 5.497383996212121104e+01 6.869195864898989612e+01
5.463083964646464352e+01 5.494807449494949481e+01 6.867881944444444287e+01
5.461051925505050519e+01 5.492507102272727337e+01 6.865534248737374412e+01
5.424814551767676818e+01 5.463324652777777857e+01 6.839855587121212466e+01
5.427734375000000000e+01 5.463624526515151558e+01 6.842917455808080263e+01
5.419416824494949481e+01 5.457122001262626299e+01 6.835736268939393767e+01
5.414464962121212466e+01 5.445478219696969546e+01 6.825149936868686495e+01
5.409205334595959869e+01 5.440818339646464352e+01 6.821673768939393767e+01
5.411466224747474740e+01 5.440995896464646364e+01 6.823982007575757791e+01
5.415005523989898961e+01 5.445845170454545325e+01 6.829004892676768179e+01
5.424175347222222143e+01 5.457335069444444287e+01 6.837622316919191690e+01
5.430942234848485128e+01 5.471125315656565391e+01 6.848019255050505194e+01
5.442069128787878896e+01 5.482094381313131493e+01 6.858688446969696884e+01
5.445904356060606233e+01 5.493521148989898961e+01 6.865380366161616621e+01
5.452943497474747403e+01 5.504916351010101039e+01 6.874708017676768179e+01
5.458964646464646364e+01 5.513494318181817988e+01 6.881581439393939092e+01
5.464930555555555713e+01 5.523563762626262275e+01 6.889236111111111427e+01
5.470837279040404155e+01 5.533211016414141170e+01 6.896547506313130782e+01
5.476992582070707272e+01 5.541133996212121104e+01 6.902923768939393767e+01
5.482556029040404155e+01 5.549348958333333570e+01 6.910318023989898961e+01
5.485945391414141170e+01 5.560929608585858830e+01 6.916500946969696884e+01
5.494965277777777857e+01 5.574131944444444287e+01 6.925110479797979224e+01
5.499325284090909349e+01 5.585752051767676818e+01 6.933747632575757791e+01
5.507062815656565391e+01 5.599218750000000000e+01 6.943536931818181301e+01
5.518229166666666430e+01 5.612121212121212466e+01 6.955018939393939092e+01
5.522739109848485128e+01 5.624901357323232531e+01 6.963095801767676107e+01
5.533053188131312794e+01 5.638498263888888573e+01 6.972731218434343248e+01
5.538727114898989612e+01 5.652600220959595845e+01 6.981514362373737015e+01
5.546555397727272663e+01 5.664595170454545325e+01 6.989879261363635976e+01
5.553081597222222143e+01 5.675935132575757791e+01 6.997904829545454675e+01
5.562472380050505194e+01 5.686414930555555713e+01 7.006064551767676107e+01
5.568169981060606233e+01 5.702308238636363313e+01 7.016307607323231821e+01
5.578570864898989612e+01 5.716007733585858830e+01 7.023867582070707272e+01
5.583159722222222143e+01 5.725299873737373701e+01 7.030950126262625588e+01
5.589784564393939092e+01 5.739437342171716949e+01 7.039642518939393767e+01
5.573820233585858830e+01 5.721878945707070585e+01 7.022810132575757791e+01
5.525840435606060908e+01 5.651598011363636687e+01 6.959331597222222854e+01
5.481948390151514872e+01 5.580212279040404155e+01 6.906885258838383379e+01
5.461667455808080973e+01 5.538671875000000000e+01 6.881758996212121815e+01
5.457161458333333570e+01 5.522802241161615910e+01 6.874127998737374412e+01
5.456502525252525260e+01 5.517440025252525260e+01 6.875094696969696884e+01
5.455563446969696884e+01 5.514591224747474740e+01 6.874455492424242209e+01
5.452280618686868507e+01 5.510771780303030454e+01 6.872782512626262985e+01
5.453768150252525260e+01 5.509891887626262275e+01 6.875074968434343248e+01
5.456167140151514872e+01 5.510696811868687206e+01 6.876479640151515582e+01
5.451708491161615910e+01 5.507579703282828376e+01 6.874830334595959869e+01
5.447585227272727337e+01 5.494523358585858830e+01 6.864330808080808310e+01
5.434856376262626299e+01 5.480452967171716949e+01 6.852122790404040131e+01
5.433282039141413833e+01 5.476795296717171624e+01 6.850516887626262985e+01
5.431581439393939092e+01 5.477588383838384090e+01 6.854387626262625588e+01
5.443584280303030454e+01 5.486545138888888573e+01 6.864354482323231821e+01
5.449309501262626299e+01 5.497005208333333570e+01 6.872399779040404155e+01
5.461304450757575779e+01 5.509883996212121104e+01 6.884994476010101039e+01
5.466303661616161946e+01 5.521180555555555713e+01 6.893939393939393767e+01
5.471464646464646364e+01 5.530160984848485128e+01 6.899321338383838054e+01
5.474735637626262275e+01 5.535610006313131493e+01 6.902892203282827666e+01
5.484584122474747403e+01 5.546515940656565391e+01 6.914082228535353636e+01
5.485558712121212466e+01 5.552209595959595845e+01 6.916208964646465063e+01
5.494270833333333570e+01 5.558712121212121104e+01 6.923563762626262985e+01
5.495864898989898961e+01 5.567345328282828376e+01 6.930192550505050519e+01
5.502884311868687206e+01 5.574822443181817988e+01 6.936122948232323893e+01
5.502596275252525260e+01 5.583483270202020066e+01 6.939859532828282340e+01
5.514145359848485128e+01 5.597415561868687206e+01 6.951092960858585457e+01
5.519764046717171624e+01 5.609331597222222143e+01 6.961667455808080263e+01
5.529821654040404155e+01 5.619531250000000000e+01 6.970778093434343248e+01
5.533420138888888573e+01 5.631904987373737725e+01 6.976207386363635976e+01
5.542191445707070585e+01 5.641102430555555713e+01 6.984489425505050519e+01
5.545947758838384090e+01 5.653507733585858830e+01 6.994038036616161946e+01
5.557019412878787534e+01 5.664579387626262275e+01 7.001779513888888573e+01
5.558325441919191690e+01 5.676017992424242209e+01 7.009840593434343248e+01
5.568177872474747403e+01 5.688332544191919027e+01 7.018967013888888573e+01
5.572084122474747403e+01 5.697857481060606233e+01 7.025240688131313505e+01
5.582919034090909349e+01 5.710744160353535648e+01 7.032524463383838054e+01
5.590183080808080973e+01 5.719744318181817988e+01 7.040546085858585457e+01
5.578929924242424221e+01 5.711647727272727337e+01 7.028172348484848442e+01
5.530449021464646364e+01 5.645979324494949481e+01 6.971026672979797922e+01
5.478436710858586167e+01 5.559939236111111427e+01 6.906893150252524549e+01
5.446255523989898961e+01 5.508345170454545325e+01 6.869866635101010388e+01
5.438372001262626299e+01 5.486983112373737725e+01 6.857848011363635976e+01
5.438790246212121104e+01 5.481561710858586167e+01 6.857461332070707272e+01
5.441015625000000000e+01 5.477773832070707272e+01 6.858834438131313505e+01
5.437073863636363313e+01 5.469349747474747403e+01 6.855934343434343248e+01
5.437906407828283051e+01 5.465842013888888573e+01 6.854872948232323893e+01
5.437685448232323182e+01 5.466110321969696884e+01 6.856056660353534937e+01
5.439891098484848442e+01 5.465206755050505194e+01 6.857678345959595845e+01
5.431538036616161946e+01 5.454486268939393767e+01 6.852134627525252597e+01
5.426830808080808310e+01 5.441445707070707272e+01 6.842850378787878185e+01
5.424345012626262275e+01 5.437649936868687206e+01 6.839906881313130782e+01
5.425820707070707272e+01 5.438604797979797922e+01 6.842992424242424931e+01
5.431111900252525260e+01 5.448757102272727337e+01 6.852292455808080263e+01
5.443686868686868507e+01 5.461710858585858830e+01 6.862373737373737015e+01
5.448638731060606233e+01 5.474538352272727337e+01 6.874775094696970257e+01
5.460917771464646364e+01 5.486359690656565391e+01 6.886122948232323893e+01
5.461951546717171624e+01 5.498757102272727337e+01 6.892191445707071296e+01
5.469002525252525260e+01 5.507465277777777857e+01 6.901294191919191690e+01
5.471748737373737725e+01 5.517913510101010388e+01 6.908806818181818699e+01
5.478491950757575779e+01 5.528365688131312794e+01 6.914539930555555713e+01
5.487488162878787534e+01 5.534631470959595845e+01 6.920947758838383379e+01
5.496515940656565391e+01 5.547163036616161946e+01 6.930591066919191690e+01
5.501578282828283051e+01 5.558364898989898961e+01 6.938541666666667140e+01
5.507417929292929415e+01 5.569018308080808310e+01 6.948390151515151558e+01
5.513391729797979934e+01 5.580200441919191690e+01 6.957520517676768179e+01
5.525224905303030454e+01 5.591181344696969546e+01 6.965234375000000000e+01
5.529024621212121104e+01 5.604482323232323182e+01 6.977304292929292728e+01
5.535890151515151558e+01 5.617282196969696884e+01 6.987026515151515582e+01
5.542834595959595845e+01 5.632970328282828376e+01 6.996622474747475451e+01
5.554580965909090651e+01 5.644195864898989612e+01 7.007137784090909349e+01
5.556893150252525260e+01 5.657634943181817988e+01 7.017262468434343248e+01
5.564918718434343248e+01 5.672068339646464352e+01 7.028760258838383379e+01
5.574092487373737725e+01 5.684303977272727337e+01 7.035361426767676107e+01
5.581277619949494806e+01 5.699064867424242209e+01 7.045324337121212466e+01
5.592073074494949481e+01 5.710728377525252597e+01 7.053925978535353636e+01
5.598745265151514872e+01 5.720888573232323182e+01 7.061292613636364024e+01
5.605480587121212466e+01 5.733463541666666430e+01 7.070253314393939092e+01
5.608175505050505194e+01 5.746654040404040131e+01 7.079545454545454675e+01
5.610420612373737725e+01 5.750950915404040131e+01 7.080543718434343248e+01
5.572163036616161946e+01 5.698252051767676818e+01 7.032974273989898961e+01
5.515384311868687206e+01 5.616899463383838054e+01 6.964058554292928704e+01
5.489457070707070585e+01 5.556976010101010388e+01 6.924053030303029743e+01
5.479869002525252597e+01 5.535661300505050519e+01 6.914291351010101039e+01
5.482528409090909349e+01 5.534974747474747403e+01 6.918955176767676107e+01
5.485925662878787534e+01 5.539113794191919027e+01 6.925461647727273373e+01
5.490155460858586167e+01 5.540865688131312794e+01 6.926487531565656752e+01
5.491583806818182012e+01 5.541094539141413833e+01 6.929225852272726627e+01
5.495048137626262275e+01 5.546910511363636687e+01 6.936067708333332860e+01
5.495419034090909349e+01 5.549270044191919027e+01 6.936091382575757791e+01
5.492183554292929415e+01 5.543446180555555713e+01 6.931467013888888573e+01
5.477738320707070585e+01 5.531131628787878896e+01 6.920146780303029743e+01
5.483360953282828376e+01 5.524617266414141170e+01 6.919203756313130782e+01
5.482875631313131493e+01 5.527383207070707272e+01 6.922900883838383379e+01
5.487610479797979934e+01 5.535085227272727337e+01 6.931628787878787534e+01
5.492846433080808310e+01 5.545434816919191690e+01 6.940021306818181301e+01
5.503685290404040131e+01 5.560377209595959869e+01 6.953069760101010388e+01
5.514563604797979934e+01 5.574459438131312794e+01 6.961912089646465063e+01
5.522048611111111427e+01 5.585258838383838054e+01 6.971890782828282340e+01
5.524108270202020066e+01 5.599613320707070585e+01 6.978022411616161946e+01
5.532717803030303116e+01 5.606770833333333570e+01 6.985037878787878185e+01
5.534974747474747403e+01 5.616887626262626299e+01 6.993592171717172334e+01
5.542234848484848442e+01 5.626751893939393767e+01 7.001262626262625588e+01
5.548863636363636687e+01 5.635779671717171624e+01 7.008238636363635976e+01
5.556893150252525260e+01 5.645245422979797922e+01 7.018556660353534937e+01
5.559757733585858830e+01 5.653997001262626299e+01 7.025682607323231821e+01
5.569783775252525260e+01 5.668363320707070585e+01 7.033183396464646364e+01
5.577426609848485128e+01 5.680961963383838054e+01 7.045213857323231821e+01
5.589389993686868507e+01 5.693809185606060908e+01 7.053989109848484418e+01
5.590388257575757791e+01 5.706060606060606233e+01 7.060890151515151558e+01
5.600323547979797922e+01 5.718473800505050519e+01 7.071740845959595845e+01
5.605377998737373701e+01 5.730930397727272663e+01 7.078689236111111427e+01
5.615333017676767469e+01 5.743678977272727337e+01 7.091264204545454675e+01
5.619724589646464352e+01 5.756498579545454675e+01 7.099601483585858830e+01
5.628918087121212466e+01 5.770537405303030454e+01 7.111020359848484418e+01
5.636556976010101039e+01 5.785909880050505194e+01 7.120300662878787534e+01
5.644381313131312794e+01 5.795628156565656752e+01 7.129356060606060908e+01
5.649487058080808310e+01 5.810235164141413833e+01 7.137823547979797922e+01
5.653555082070707272e+01 5.809852430555555713e+01 7.133889678030303116e+01
5.605993529040404155e+01 5.751416508838384090e+01 7.084702493686869218e+01
5.558072916666666430e+01 5.669041982323232531e+01 7.018789457070707272e+01
5.523224431818182012e+01 5.611055871212121104e+01 6.979206123737374412e+01
5.515486900252525260e+01 5.585894097222222143e+01 6.966354955808080263e+01
5.515818339646464352e+01 5.585578440656565391e+01 6.969795612373737015e+01
5.520576862373737725e+01 5.585854640151514872e+01 6.975106534090909349e+01
5.517155934343434609e+01 5.586284722222222143e+01 6.974447601010101039e+01
5.522482638888888573e+01 5.585314078282828376e+01 6.975686553030303116e+01
5.523559816919191690e+01 5.590968276515151558e+01 6.981119791666667140e+01
5.524329229797979934e+01 5.591753472222222143e+01 6.981636679292928704e+01
5.520198074494949481e+01 5.580157039141413833e+01 6.973559816919191690e+01
5.507449494949494806e+01 5.563778409090909349e+01 6.963052398989898961e+01
5.503172348484848442e+01 5.559485479797979934e+01 6.957433712121212466e+01
5.508538510101010388e+01 5.560669191919191690e+01 6.963068181818181301e+01
5.514386047979797922e+01 5.570225694444444287e+01 6.971314709595959869e+01
5.526972853535353636e+01 5.585022095959595845e+01 6.983617424242424931e+01
5.535704703282828376e+01 5.599546243686868507e+01 6.996894728535353636e+01
5.541694286616161946e+01 5.612275094696969546e+01 7.003515625000000000e+01
5.554099589646464352e+01 5.623954387626262275e+01 7.012038352272726627e+01
5.554774305555555713e+01 5.631084280303030454e+01 7.019278724747475451e+01
5.554679608585858830e+01 5.640048926767676818e+01 7.025007891414141170e+01
5.557236426767676818e+01 5.645935921717171624e+01 7.029648042929292728e+01
5.561604324494949481e+01 5.651092960858586167e+01 7.031553819444444287e+01
5.567100694444444287e+01 5.659509154040404155e+01 7.037791982323231821e+01
5.574530460858586167e+01 5.670316445707070585e+01 7.046594854797979224e+01
5.583317550505050519e+01 5.680792297979797922e+01 7.055776515151515582e+01
5.588936237373737725e+01 5.696291035353535648e+01 7.067518939393939092e+01
5.595643939393939092e+01 5.705808080808080973e+01 7.074021464646465063e+01
5.592641256313131493e+01 5.702458175505050519e+01 7.070971433080808310e+01
5.548117897727272663e+01 5.642246685606060908e+01 7.019961332070707272e+01
5.494681186868687206e+01 5.559406565656565391e+01 6.951815025252524549e+01
5.467258522727272663e+01 5.506399936868687206e+01 6.917069128787878185e+01
5.465064709595959869e+01 5.490838068181817988e+01 6.908104482323231821e+01
5.462953756313131493e+01 5.488995422979797922e+01 6.908897569444444287e+01
5.460349589646464352e+01 5.484797190656565391e+01 6.906987847222222854e+01
5.462914299242424221e+01 5.479407354797979934e+01 6.905496369949494806e+01
5.460022095959595845e+01 5.478929924242424221e+01 6.906423611111111427e+01
5.464433396464646364e+01 5.485961174242424221e+01 6.909745896464646364e+01
5.461158459595959869e+01 5.486205808080808310e+01 6.909611742424242209e+01
5.457741477272727337e+01 5.477122790404040131e+01 6.905579229797979224e+01
5.454016729797979934e+01 5.467211174242424221e+01 6.898113952020202078e+01
5.453203914141413833e+01 5.465325126262626299e+01 6.896433080808080263e+01
5.455677872474747403e+01 5.467751736111111427e+01 6.900059185606060908e+01
5.465561868686868507e+01 5.477604166666666430e+01 6.909627525252524549e+01
5.474688289141413833e+01 5.494827178030303116e+01 6.923709753787878185e+01
5.482125946969696884e+01 5.508641098484848442e+01 6.932536300505050519e+01
5.487859059343434609e+01 5.521334438131312794e+01 6.944361584595959869e+01
5.499573863636363313e+01 5.533712121212121104e+01 6.951957070707071296e+01
5.500872001262626299e+01 5.542885890151514872e+01 6.959442077020202078e+01
5.508467487373737725e+01 5.550639204545454675e+01 6.965853851010101039e+01
5.510456123737373701e+01 5.559603851010101039e+01 6.971614583333332860e+01
5.515005523989898961e+01 5.568225220959595845e+01 6.977947443181818699e+01
5.521425189393939092e+01 5.579458648989898961e+01 6.984651199494949481e+01
5.530417455808080973e+01 5.590439551767676818e+01 6.993059501262625588e+01
5.533175505050505194e+01 5.601136363636363313e+01 7.001041666666667140e+01
5.542743844696969546e+01 5.613703440656565391e+01 7.010783617424242209e+01
5.549218750000000000e+01 5.626160037878787534e+01 7.018126578282827666e+01
5.558226799242424221e+01 5.638782354797979934e+01 7.026818970959595845e+01
5.561478061868687206e+01 5.647857481060606233e+01 7.034300031565656752e+01
5.570174400252525260e+01 5.661588541666666430e+01 7.043611900252524549e+01
5.573551925505050519e+01 5.671058238636363313e+01 7.049277935606060908e+01
5.584528882575757791e+01 5.684970801767676818e+01 7.060333806818181301e+01
5.584919507575757791e+01 5.696204229797979934e+01 7.067889835858585457e+01
5.595853061868687206e+01 5.708905460858586167e+01 7.073836016414141170e+01
5.601886047979797922e+01 5.719878472222222143e+01 7.082930871212121815e+01
5.604778251262626299e+01 5.730772569444444287e+01 7.088111584595959869e+01
5.614397885101010388e+01 5.741323390151514872e+01 7.096626420454545325e+01
5.623646622474747403e+01 5.752134627525252597e+01 7.106238162878787534e+01
5.623323074494949481e+01 5.763253630050505194e+01 7.112211963383838054e+01
5.632129892676767469e+01 5.773907039141413833e+01 7.122344539141414543e+01
5.595659722222222143e+01 5.730129419191919027e+01 7.079782196969696884e+01
5.533112373737373701e+01 5.630271464646464352e+01 6.999337121212121815e+01
5.482267992424242209e+01 5.543994633838384090e+01 6.932457386363635976e+01
5.463660037878787534e+01 5.504285037878787534e+01 6.906778724747475451e+01
5.458357007575757791e+01 5.496946022727272663e+01 6.904411300505050519e+01
5.459686710858586167e+01 5.491062973484848442e+01 6.903405145202020776e+01
5.459738005050505194e+01 5.485148358585858830e+01 6.901657196969696884e+01
5.455867266414141170e+01 5.477473958333333570e+01 6.894077493686869218e+01
5.454261363636363313e+01 5.477872474747474740e+01 6.898011363636364024e+01
5.457919034090909349e+01 5.476811079545454675e+01 6.895860953282827666e+01
5.450702335858586167e+01 5.469168244949494806e+01 6.889101957070707272e+01
5.439176925505050519e+01 5.451029829545454675e+01 6.873094223484848442e+01
5.431395991161615910e+01 5.439603061868687206e+01 6.867491319444444287e+01
5.433246527777777857e+01 5.438738952020202078e+01 6.867542613636364024e+01
5.439172979797979934e+01 5.445233585858586167e+01 6.872632575757575069e+01
5.448674242424242209e+01 5.457133838383838054e+01 6.885763888888888573e+01
5.450177556818182012e+01 5.466970486111111427e+01 6.891702178030303116e+01
5.458992266414141170e+01 5.483155776515151558e+01 6.905804135101010388e+01
5.468280460858586167e+01 5.494858743686868507e+01 6.914887152777777146e+01
5.473066603535353636e+01 5.502738320707070585e+01 6.922293244949494806e+01
5.477371369949494806e+01 5.513940183080808310e+01 6.927497632575757791e+01
5.485617897727272663e+01 5.519866635101010388e+01 6.931530145202020776e+01
5.489259785353535648e+01 5.528795770202020066e+01 6.939244002525252597e+01
5.491106376262626299e+01 5.537255366161615910e+01 6.944247159090909349e+01
5.499510732323232531e+01 5.547885101010101039e+01 6.953961489898989612e+01
5.506273674242424221e+01 5.558641098484848442e+01 6.958499053030303116e+01
5.505883049242424221e+01 5.566536458333333570e+01 6.964137468434343248e+01
5.515009469696969546e+01 5.577383207070707272e+01 6.973800505050505194e+01
5.525722064393939092e+01 5.592372948232323182e+01 6.987543402777777146e+01
5.532903251262626299e+01 5.603783933080808310e+01 6.993383049242424931e+01
5.539023042929292728e+01 5.616721906565656752e+01 7.000623421717172334e+01
5.550000000000000000e+01 5.628172348484848442e+01 7.011726641414141170e+01
5.553641887626262275e+01 5.642325599747474740e+01 7.024759311868686495e+01
5.564007260101010388e+01 5.653196022727272663e+01 7.028748421717172334e+01
5.566607481060606233e+01 5.662914299242424221e+01 7.038940183080808310e+01
5.573701862373737725e+01 5.677189867424242209e+01 7.045482165404040131e+01
5.579892676767676818e+01 5.689472853535353636e+01 7.054277146464646364e+01
5.588360164141413833e+01 5.698997790404040131e+01 7.062507891414141170e+01
5.595533459595959869e+01 5.709753787878787534e+01 7.069917929292928704e+01
5.601901830808080973e+01 5.723761047979797922e+01 7.078369633838383379e+01
5.604620422979797922e+01 5.729872948232323182e+01 7.083329387626262985e+01
5.582496843434343248e+01 5.704734848484848442e+01 7.055650252525252597e+01
5.516516729797979934e+01 5.612918244949494806e+01 6.977391098484848442e+01
5.462882733585858830e+01 5.515944602272727337e+01 6.904943970959595845e+01
5.438399621212121104e+01 5.465372474747474740e+01 6.872222222222222854e+01
5.433167613636363313e+01 5.450497159090909349e+01 6.862144886363635976e+01
5.434169823232323182e+01 5.446227904040404155e+01 6.861631944444444287e+01
5.430247790404040131e+01 5.441453598484848442e+01 6.860629734848484418e+01
5.418939393939393767e+01 5.431486742424242209e+01 6.852761994949494806e+01
5.421464646464646364e+01 5.427083333333333570e+01 6.850378787878787534e+01
5.421081912878787534e+01 5.430930397727272663e+01 6.855567392676768179e+01
5.421208175505050519e+01 5.426400726010101039e+01 6.851558554292928704e+01
5.409154040404040131e+01 5.412863005050505194e+01 6.839867424242424931e+01
5.405093907828283051e+01 5.395513731060606233e+01 6.829541508838383379e+01
5.402118844696969546e+01 5.393548768939393767e+01 6.827718592171717660e+01
5.407082544191919027e+01 5.396208175505050519e+01 6.832082544191919737e+01
5.410708648989898961e+01 5.406005366161615910e+01 6.841579861111111427e+01
5.422190656565656752e+01 5.421906565656565391e+01 6.851325757575757791e+01
5.431833964646464352e+01 5.434990530303030454e+01 6.866919191919191690e+01
5.443319917929292728e+01 5.451590119949494806e+01 6.876321811868686495e+01
5.443505366161615910e+01 5.461497790404040131e+01 6.883877840909090651e+01
5.451530934343434609e+01 5.471054292929292728e+01 6.891429924242424931e+01
5.457662563131312794e+01 5.478338068181817988e+01 6.898634785353534937e+01
5.460613952020202078e+01 5.486482007575757791e+01 6.904600694444444287e+01
5.466347064393939092e+01 5.496018781565656752e+01 6.909008049242424931e+01
5.470766256313131493e+01 5.504651988636363313e+01 6.916252367424242209e+01
5.478472222222222143e+01 5.516840277777777857e+01 6.923327020202020776e+01
5.486379419191919027e+01 5.528866792929292728e+01 6.933980429292928704e+01
5.492286142676767469e+01 5.540834122474747403e+01 6.941433869949494806e+01
5.498705808080808310e+01 5.549305555555555713e+01 6.948863636363635976e+01
5.503622159090909349e+01 5.562113320707070585e+01 6.957962436868686495e+01
5.517325599747474740e+01 5.577537089646464352e+01 6.970150726010101039e+01
5.519669349747474740e+01 5.591639046717171624e+01 6.980322758838383379e+01
5.530117582070707272e+01 5.603365688131312794e+01 6.990439551767676107e+01
5.535499526515151558e+01 5.616181344696969546e+01 6.997762784090909349e+01
5.542972695707070585e+01 5.626795296717171624e+01 7.005472695707071296e+01
5.548871527777777857e+01 5.638675820707070585e+01 7.013439078282827666e+01
5.552683080808080973e+01 5.645407196969696884e+01 7.016524621212121815e+01
5.557516571969696884e+01 5.658921243686868507e+01 7.027245107323231821e+01
5.568698705808080973e+01 5.670450599747474740e+01 7.036391256313130782e+01
5.565522411616161946e+01 5.672182765151514872e+01 7.035677083333332860e+01
5.516919191919191690e+01 5.610258838383838054e+01 6.978724747474747403e+01
5.456435448232323182e+01 5.510428503787878896e+01 6.899506786616161946e+01
5.420044191919191690e+01 5.441761363636363313e+01 6.850236742424242209e+01
5.400359059343434609e+01 5.415226483585858830e+01 6.831072443181818699e+01
5.405634469696969546e+01 5.411994949494949481e+01 6.832938762626262985e+01
5.405646306818182012e+01 5.408992266414141170e+01 6.831561710858585457e+01
5.404529671717171624e+01 5.404450757575757791e+01 6.828961489898989612e+01
5.395505839646464352e+01 5.397983743686868507e+01 6.824909248737374412e+01
5.402185921717171624e+01 5.403353851010101039e+01 6.831447285353534937e+01
5.404135101010101039e+01 5.402256944444444287e+01 6.832149621212121815e+01
5.393864425505050519e+01 5.389366319444444287e+01 6.820490056818181301e+01
5.381640625000000000e+01 5.374491003787878896e+01 6.806167140151515582e+01
5.379750631313131493e+01 5.366792929292929415e+01 6.801231060606060908e+01
5.380926452020202078e+01 5.369720643939393767e+01 6.803953598484848442e+01
5.391682449494949481e+01 5.376972853535353636e+01 6.812894570707071296e+01
5.396598800505050519e+01 5.391248421717171624e+01 6.824676452020202078e+01
5.411470170454545325e+01 5.406830018939393767e+01 6.837306660353534937e+01
5.415699968434343248e+01 5.418793402777777857e+01 6.847107796717172334e+01
5.422601010101010388e+01 5.429703282828283051e+01 6.855113636363635976e+01
5.428831281565656752e+01 5.437480271464646364e+01 6.860538983585858830e+01
5.435345643939393767e+01 5.447877209595959869e+01 6.870572916666667140e+01
5.436130839646464352e+01 5.456774779040404155e+01 6.873914930555555713e+01
5.442518939393939092e+01 5.464535984848485128e+01 6.879577020202020776e+01
5.448346748737373701e+01 5.470947758838384090e+01 6.884647253787878185e+01
5.454367897727272663e+01 5.480883049242424221e+01 6.895150726010101039e+01
5.457804608585858830e+01 5.491769255050505194e+01 6.900844381313130782e+01
5.466575915404040131e+01 5.504912405303030454e+01 6.911588541666667140e+01
5.471697443181817988e+01 5.516378630050505194e+01 6.918714488636364024e+01
5.477872474747474740e+01 5.519444444444444287e+01 6.922964015151515582e+01
5.436572758838384090e+01 5.470237531565656752e+01 6.876313920454545325e+01
5.382907196969696884e+01 5.382102272727272663e+01 6.806565656565656752e+01
5.342822758838384090e+01 5.321026672979797922e+01 6.758589804292928704e+01
5.336829229797979934e+01 5.298445391414141170e+01 6.745935921717172334e+01
5.335527146464646364e+01 5.295549242424242209e+01 6.747364267676768179e+01
5.338577178030303116e+01 5.295174400252525260e+01 6.747399779040404155e+01
5.339721433080808310e+01 5.292167771464646364e+01 6.747391887626262985e+01
5.339405776515151558e+01 5.294014362373737725e+01 6.748907039141414543e+01
5.349147727272727337e+01 5.305476641414141170e+01 6.759958964646465063e+01
5.345829387626262275e+01 5.307082544191919027e+01 6.760081281565656752e+01
5.344093276515151558e+01 5.299980271464646364e+01 6.755377998737374412e+01
5.339271622474747403e+01 5.288261521464646364e+01 6.746721117424242209e+01
5.332374526515151558e+01 5.286446496212121104e+01 6.744164299242424931e+01
5.341607481060606233e+01 5.293927556818182012e+01 6.753270991161616621e+01
5.349329229797979934e+01 5.308656881313131493e+01 6.766248421717172334e+01
5.362788036616161946e+01 5.325477430555555713e+01 6.781238162878787534e+01
5.374491003787878896e+01 5.341110321969696884e+01 6.794077493686869218e+01
5.384146148989898961e+01 5.356794507575757791e+01 6.806368371212121815e+01
5.389642518939393767e+01 5.372139362373737725e+01 6.817767518939393767e+01
5.400276199494949481e+01 5.384777462121212466e+01 6.827185921717172334e+01
5.400864109848485128e+01 5.397044665404040131e+01 6.835759943181818699e+01
5.410834911616161946e+01 5.408372790404040131e+01 6.846882891414141170e+01
5.419136679292929415e+01 5.419799558080808310e+01 6.854427083333332860e+01
5.423717645202020066e+01 5.430520044191919027e+01 6.862369791666667140e+01
5.432986111111111427e+01 5.443023989898989612e+01 6.871433080808080263e+01
5.440609217171716949e+01 5.457449494949494806e+01 6.881739267676768179e+01
5.448330965909090651e+01 5.470663667929292728e+01 6.891149779040404155e+01
5.460041824494949481e+01 5.486383364898989612e+01 6.902702809343433898e+01
5.468532986111111427e+01 5.502387152777777857e+01 6.914966066919191690e+01
5.475832544191919027e+01 5.513269412878787534e+01 6.926353377525252597e+01
5.486687184343434609e+01 5.528464330808080973e+01 6.940143623737374412e+01
5.493458017676767469e+01 5.545620265151514872e+01 6.949676452020202078e+01
5.500449810606060908e+01 5.557820391414141170e+01 6.958877840909090651e+01
5.508033459595959869e+01 5.573358585858586167e+01 6.970864898989898961e+01
5.514176925505050519e+01 5.588229955808080973e+01 6.981901041666667140e+01
5.526732165404040131e+01 5.601763731060606233e+01 6.989263731060606233e+01
5.528578756313131493e+01 5.615557922979797922e+01 7.000769412878787534e+01
5.542724116161615910e+01 5.628093434343434609e+01 7.011852904040404155e+01
5.548749210858586167e+01 5.643493529040404155e+01 7.021397569444444287e+01
5.559595959595959869e+01 5.656802398989898961e+01 7.032149621212121815e+01
5.547545770202020066e+01 5.656447285353535648e+01 7.025954861111111427e+01
5.506064551767676818e+01 5.589003314393939092e+01 6.967933238636364024e+01
5.453890467171716949e+01 5.505768623737373701e+01 6.904032512626262985e+01
5.425682607323232531e+01 5.453192077020202078e+01 6.869069602272726627e+01
5.419996843434343248e+01 5.440782828282828376e+01 6.860984848484848442e+01
5.422750946969696884e+01 5.441090593434343248e+01 6.866011679292928704e+01
5.428752367424242209e+01 5.442230902777777857e+01 6.870008680555555713e+01
5.426909722222222143e+01 5.439220328282828376e+01 6.868529040404040131e+01
5.425193339646464352e+01 5.438561395202020066e+01 6.866970486111111427e+01
5.430535827020202078e+01 5.443635574494949481e+01 6.873181029040404155e+01
5.428566919191919027e+01 5.444728535353535648e+01 6.872348484848484418e+01
5.421267361111111427e+01 5.437870896464646364e+01 6.866437815656566102e+01
5.417215119949494806e+01 5.428057922979797922e+01 6.862164614898989612e+01
5.414701704545454675e+01 5.427233270202020066e+01 6.861418876262625588e+01
5.422249842171716949e+01 5.433755523989898961e+01 6.865857796717172334e+01
5.431806344696969546e+01 5.446721117424242209e+01 6.878539299242424931e+01
5.443308080808080973e+01 5.460937500000000000e+01 6.893607954545454675e+01
5.452939551767676818e+01 5.476392834595959869e+01 6.904770359848484418e+01
5.460752051767676818e+01 5.491386521464646364e+01 6.916749526515151558e+01
5.469977114898989612e+01 5.504699337121212466e+01 6.924285827020202078e+01
5.473228377525252597e+01 5.516552241161615910e+01 6.933392518939393767e+01
5.478914141414141170e+01 5.527462121212121104e+01 6.940151515151515582e+01
5.484386837121212466e+01 5.536675347222222143e+01 6.945655776515151558e+01
5.494839015151514872e+01 5.546780303030303116e+01 6.956707702020202078e+01
5.499802714646464352e+01 5.559114583333333570e+01 6.966169507575757791e+01
5.511280776515151558e+01 5.574159564393939092e+01 6.976006155303029743e+01
5.516240530303030454e+01 5.585053661616161946e+01 6.984753787878787534e+01
5.525232796717171624e+01 5.599996054292929415e+01 6.994156407828282340e+01
5.532544191919191690e+01 5.613525883838384090e+01 7.002714646464646364e+01
5.538399621212121104e+01 5.626167929292929415e+01 7.013604797979797922e+01
5.543600063131312794e+01 5.639922664141413833e+01 7.024408143939393767e+01
5.553918087121212466e+01 5.655701546717171624e+01 7.032122001262625588e+01
5.563955965909090651e+01 5.670032354797979934e+01 7.044622001262625588e+01
5.572675978535353636e+01 5.680535827020202078e+01 7.053641887626262985e+01
5.575378787878787534e+01 5.693860479797979934e+01 7.062973484848484418e+01
5.589200599747474740e+01 5.707398200757575779e+01 7.073338857323231821e+01
5.593260732323232531e+01 5.720785984848485128e+01 7.082133838383838054e+01
5.599021464646464352e+01 5.731928661616161946e+01 7.089851641414141170e+01
5.606265782828283051e+01 5.745596590909090651e+01 7.098910984848484418e+01
5.611205808080808310e+01 5.755287247474747403e+01 7.106234217171717660e+01
5.618371212121212466e+01 5.767487373737373701e+01 7.115451388888888573e+01
5.609670928030303116e+01 5.758266256313131493e+01 7.104131155303029743e+01
5.555157039141413833e+01 5.685223327020202078e+01 7.042530776515151558e+01
5.512436868686868507e+01 5.607559974747474740e+01 6.985842803030303116e+01
5.487689393939393767e+01 5.565546085858586167e+01 6.954292929292928704e+01
5.487294823232323182e+01 5.555445075757575779e+01 6.950915404040404155e+01
5.485783617424242209e+01 5.554407354797979934e+01 6.953444602272726627e+01
5.487365845959595845e+01 5.547719381313131493e+01 6.950718118686869218e+01
5.472431344696969546e+01 5.534615688131312794e+01 6.940534248737374412e+01
5.473303345959595845e+01 5.530026830808080973e+01 6.937397411616161946e+01
5.477990845959595845e+01 5.532694128787878896e+01 6.940490845959595845e+01
5.480768623737373701e+01 5.534382891414141170e+01 6.940301452020202078e+01
5.476124526515151558e+01 5.526755839646464352e+01 6.937819602272726627e+01
5.468430397727272663e+01 5.515999842171716949e+01 6.929304766414141170e+01
5.470371685606060908e+01 5.514247948232323182e+01 6.927110953282827666e+01
5.473615056818182012e+01 5.518138415404040131e+01 6.930228061868686495e+01
5.477395044191919027e+01 5.526495422979797922e+01 6.938348327020202078e+01
5.490384311868687206e+01 5.543588226010101039e+01 6.952600220959595845e+01
5.496598800505050519e+01 5.553969381313131493e+01 6.961024305555555713e+01
5.502825126262626299e+01 5.567645202020202078e+01 6.970249368686869218e+01
5.502619949494949481e+01 5.577367424242424221e+01 6.974242424242424931e+01
5.514835858585858830e+01 5.586947601010101039e+01 6.985984848484848442e+01
5.518651357323232531e+01 5.598007417929292728e+01 6.987590751262625588e+01
5.522344539141413833e+01 5.605614741161615910e+01 6.993793402777777146e+01
5.524297664141413833e+01 5.611450441919191690e+01 6.998918876262625588e+01
5.532106218434343248e+01 5.619416824494949481e+01 7.003649779040404155e+01
5.536955492424242209e+01 5.629521780303030454e+01 7.014938446969696884e+01
5.547790404040404155e+01 5.641493055555555713e+01 7.023958333333332860e+01
5.550394570707070585e+01 5.656297348484848442e+01 7.031344696969696884e+01
5.546961805555555713e+01 5.651523042929292728e+01 7.024471275252524549e+01
5.512168560606060908e+01 5.603298611111111427e+01 6.982417929292928704e+01
5.468162089646464352e+01 5.531056660353535648e+01 6.929352114898989612e+01
5.443039772727272663e+01 5.486537247474747403e+01 6.895533459595959869e+01
5.440258049242424221e+01 5.473654513888888573e+01 6.889973958333332860e+01
5.437740688131312794e+01 5.470758364898989612e+01 6.887598642676768179e+01
5.438048453282828376e+01 5.468951231060606233e+01 6.889405776515151558e+01
5.439488636363636687e+01 5.463083964646464352e+01 6.885353535353534937e+01
5.439603061868687206e+01 5.465834122474747403e+01 6.887377683080808310e+01
5.444842960858586167e+01 5.474956597222222143e+01 6.896594854797979224e+01
5.443213383838384090e+01 5.472916666666666430e+01 6.894870580808080263e+01
5.434603851010101039e+01 5.464575441919191690e+01 6.887413194444444287e+01
5.429000946969696884e+01 5.455437184343434609e+01 6.878511679292928704e+01
5.431908933080808310e+01 5.454225852272727337e+01 6.880188604797979224e+01
5.437874842171716949e+01 5.459339488636363313e+01 6.885128630050505194e+01
5.446776357323232531e+01 5.471223958333333570e+01 6.895845170454545325e+01
5.457630997474747403e+01 5.488170770202020066e+01 6.909651199494949481e+01
5.462953756313131493e+01 5.499159564393939092e+01 6.915273832070707272e+01
5.468998579545454675e+01 5.512859059343434609e+01 6.926132417929292728e+01
5.474846117424242209e+01 5.524151672979797922e+01 6.933495107323231821e+01
5.478673453282828376e+01 5.532271938131312794e+01 6.938080018939393767e+01
5.484524936868687206e+01 5.539859532828283051e+01 6.946725063131313505e+01
5.492297979797979934e+01 5.550647095959595845e+01 6.953519570707071296e+01
5.493880208333333570e+01 5.562093592171716949e+01 6.959947127525252597e+01
5.501507260101010388e+01 5.571898674242424221e+01 6.965001578282827666e+01
5.504979482323232531e+01 5.580942234848485128e+01 6.973287563131313505e+01
5.516587752525252597e+01 5.593087121212121104e+01 6.983349116161616621e+01
5.520119160353535648e+01 5.603468276515151558e+01 6.990984059343433898e+01
5.528389362373737725e+01 5.615258049242424221e+01 6.999159564393939092e+01
5.534201388888888573e+01 5.626815025252525260e+01 7.006060606060606233e+01
5.543722380050505194e+01 5.641670612373737725e+01 7.018738162878787534e+01
5.542897727272727337e+01 5.648768939393939092e+01 7.022222222222222854e+01
5.522577335858586167e+01 5.620367739898989612e+01 6.994184027777777146e+01
5.468225220959595845e+01 5.537164614898989612e+01 6.925911458333332860e+01
5.422952178030303116e+01 5.465171243686868507e+01 6.872036773989898961e+01
5.413403566919191690e+01 5.435183869949494806e+01 6.852466066919191690e+01
5.408996212121212466e+01 5.425205176767676818e+01 6.848611111111111427e+01
5.407204861111111427e+01 5.420415088383838054e+01 6.846630366161616621e+01
5.403614267676767469e+01 5.411474116161615910e+01 6.841240530303029743e+01
5.400027619949494806e+01 5.407698074494949481e+01 6.839216382575757791e+01
5.404052241161615910e+01 5.410823074494949481e+01 6.843714488636364024e+01
5.407954545454545325e+01 5.415340909090909349e+01 6.846717171717172334e+01
5.404478377525252597e+01 5.410318023989898961e+01 6.844187973484848442e+01
5.393627683080808310e+01 5.395821496212121104e+01 6.831332859848484418e+01
5.384745896464646364e+01 5.388770517676767469e+01 6.825228851010101039e+01
5.392554450757575779e+01 5.391938920454545325e+01 6.831553819444444287e+01
5.401558554292929415e+01 5.399964488636363313e+01 6.838474589646465063e+01
5.409698547979797922e+01 5.416390467171716949e+01 6.852501578282827666e+01
5.423070549242424221e+01 5.430867266414141170e+01 6.861848958333332860e+01
5.428898358585858830e+01 5.446669823232323182e+01 6.874621212121212466e+01
5.436852904040404155e+01 5.459532828282828376e+01 6.884232954545454675e+01
5.443465909090909349e+01 5.468371212121212466e+01 6.890877525252524549e+01
5.449270044191919027e+01 5.477300347222222143e+01 6.898275726010101039e+01
5.453783933080808310e+01 5.489405776515151558e+01 6.907429766414141170e+01
5.461403093434343248e+01 5.499376578282828376e+01 6.914812184343433898e+01
5.465731534090909349e+01 5.508124210858586167e+01 6.919913983585858830e+01
5.469120896464646364e+01 5.517242739898989612e+01 6.927722537878787534e+01
5.480531881313131493e+01 5.530642361111111427e+01 6.938786300505050519e+01
5.488115530303030454e+01 5.543765782828283051e+01 6.947537878787878185e+01
5.495276988636363313e+01 5.554241635101010388e+01 6.957556029040404155e+01
5.501448074494949481e+01 5.565715751262626299e+01 6.963632417929292728e+01
5.507129892676767469e+01 5.578420928030303116e+01 6.974759311868686495e+01
5.517791193181817988e+01 5.592459753787878896e+01 6.984236900252524549e+01
5.522048611111111427e+01 5.604703282828283051e+01 6.993813131313130782e+01
5.530886994949494806e+01 5.615419823232323182e+01 7.002272727272726627e+01
5.536809501262626299e+01 5.626440183080808310e+01 7.012393465909090651e+01
5.544543087121212466e+01 5.640739425505050519e+01 7.020095486111111427e+01
5.553752367424242209e+01 5.650800978535353636e+01 7.030109690656566102e+01
5.559793244949494806e+01 5.662981376262626299e+01 7.037807765151515582e+01
5.562073863636363313e+01 5.674053030303030454e+01 7.044949494949494806e+01
5.569890309343434609e+01 5.686004577020202078e+01 7.052971117424242209e+01
5.578661616161615910e+01 5.699100378787878896e+01 7.062515782828282340e+01
5.584457859848485128e+01 5.709599905303030454e+01 7.069653566919191690e+01
5.583704229797979934e+01 5.713517992424242209e+01 7.069815340909090651e+01
5.543359375000000000e+01 5.658716066919191690e+01 7.021784248737374412e+01
5.481139520202020066e+01 5.560148358585858830e+01 6.943008207070707272e+01
5.443260732323232531e+01 5.489504419191919027e+01 6.893607954545454675e+01
5.434619633838384090e+01 5.462350063131312794e+01 6.878606376262625588e+01
5.430883049242424221e+01 5.456972064393939092e+01 6.877189867424242209e+01
5.428586647727272663e+01 5.452576546717171624e+01 6.874877683080808310e+01
5.423137626262626299e+01 5.440656565656565391e+01 6.867550505050505194e+01
5.415356691919191690e+01 5.428077651515151558e+01 6.858759469696970257e+01
5.420166508838384090e+01 5.431624842171716949e+01 6.864942392676768179e+01
5.421930239898989612e+01 5.436261047979797922e+01 6.867526830808080263e+01
5.420233585858586167e+01 5.430018939393939092e+01 6.865088383838383379e+01
5.409698547979797922e+01 5.415001578282828376e+01 6.853306502525252597e+01
5.407481060606060908e+01 5.408349116161615910e+01 6.849731691919191690e+01
5.408270202020202078e+01 5.413809974747474740e+01 6.855287247474747403e+01
5.420659722222222143e+01 5.425568181818182012e+01 6.866366792929292728e+01
5.429517834595959869e+01 5.440534248737373701e+01 6.877576546717172334e+01
5.437768308080808310e+01 5.452730429292929415e+01 6.890830176767676107e+01
5.447782512626262275e+01 5.467148042929292728e+01 6.900323547979797922e+01
5.457713857323232531e+01 5.479651988636363313e+01 6.910428503787878185e+01
5.461746369949494806e+01 5.487945864898989612e+01 6.919969223484848442e+01
5.468106849747474740e+01 5.500998263888888573e+01 6.929217960858585457e+01
5.476420454545454675e+01 5.511821338383838054e+01 6.937247474747475451e+01
5.482441603535353636e+01 5.519578598484848442e+01 6.943110795454545325e+01
5.482702020202020066e+01 5.530950126262626299e+01 6.949053030303029743e+01
5.495379577020202078e+01 5.542191445707070585e+01 6.961225536616161946e+01
5.501744002525252597e+01 5.557346906565656752e+01 6.968615845959595845e+01
5.507027304292929415e+01 5.569543087121212466e+01 6.981048768939393767e+01
5.515435606060606233e+01 5.585558712121212466e+01 6.991824494949494806e+01
5.524526515151514872e+01 5.597380050505050519e+01 7.004356060606060908e+01
5.536474116161615910e+01 5.616587752525252597e+01 7.014520202020202078e+01
5.542996369949494806e+01 5.624767203282828376e+01 7.025445864898989612e+01
5.549199021464646364e+01 5.642002051767676818e+01 7.034268465909090651e+01
5.561375473484848442e+01 5.653326231060606233e+01 7.045119160353534937e+01
5.566303661616161946e+01 5.664883207070707272e+01 7.053787878787878185e+01
5.571141098484848442e+01 5.682110164141413833e+01 7.066232638888888573e+01
5.579383680555555713e+01 5.693872316919191690e+01 7.074301609848484418e+01
5.587298768939393767e+01 5.705354324494949481e+01 7.081190814393939092e+01
5.594740372474747403e+01 5.720071811868687206e+01 7.090810448232323893e+01
5.601775568181817988e+01 5.731194760101010388e+01 7.099786931818181301e+01
5.607236426767676818e+01 5.743016098484848442e+01 7.109414457070707272e+01
5.616698232323232531e+01 5.757512626262626299e+01 7.116966540404040131e+01
5.623504577020202078e+01 5.767080965909090651e+01 7.125161773989898961e+01
5.605890940656565391e+01 5.749609375000000000e+01 7.107705965909090651e+01
5.549419981060606233e+01 5.667696496212121104e+01 7.035546875000000000e+01
5.507587594696969546e+01 5.588269412878787534e+01 6.979525726010101039e+01
5.485909880050505194e+01 5.547526041666666430e+01 6.956127683080808310e+01
5.481904987373737725e+01 5.535219381313131493e+01 6.951807133838383379e+01
5.482232481060606233e+01 5.533716066919191690e+01 6.950935132575757791e+01
5.482185132575757791e+01 5.529549400252525260e+01 6.949404198232323893e+01
5.474806660353535648e+01 5.519819286616161946e+01 6.942925347222222854e+01
5.475181502525252597e+01 5.517637310606060908e+01 6.942810921717172334e+01
5.480618686868687206e+01 5.519460227272727337e+01 6.947758838383838054e+01
5.480752840909090651e+01 5.520099431818182012e+01 6.948540088383838054e+01
5.476156092171716949e+01 5.514019097222222143e+01 6.941765309343433898e+01
5.471476483585858830e+01 5.503168402777777857e+01 6.937890625000000000e+01
5.466595643939393767e+01 5.501160037878787534e+01 6.935550820707071296e+01
5.471113478535353636e+01 5.506530145202020066e+01 6.939121685606060908e+01
5.480184659090909349e+01 5.521677714646464352e+01 6.953259154040404155e+01
5.491907354797979934e+01 5.533384627525252597e+01 6.964555713383838054e+01
5.497234059343434609e+01 5.547975852272727337e+01 6.974270044191919737e+01
5.503211805555555713e+01 5.560250946969696884e+01 6.984130366161616621e+01
5.513012941919191690e+01 5.572908775252525260e+01 6.993237058080808310e+01
5.521839488636363313e+01 5.581640625000000000e+01 7.002158301767676107e+01
5.525635258838384090e+01 5.592791193181817988e+01 7.008005839646465063e+01
5.532295612373737725e+01 5.602529198232323182e+01 7.013861268939393767e+01
5.531171085858586167e+01 5.613005050505050519e+01 7.020580808080808310e+01
5.543797348484848442e+01 5.622616792929292728e+01 7.030413510101010388e+01
5.544957386363636687e+01 5.633199179292929415e+01 7.035345643939393767e+01
5.554182449494949481e+01 5.645044191919191690e+01 7.044365530303029743e+01
5.560337752525252597e+01 5.656328914141413833e+01 7.056502525252524549e+01
5.571330492424242209e+01 5.671535669191919027e+01 7.067195391414141170e+01
5.576053503787878896e+01 5.684134311868687206e+01 7.076590119949494806e+01
5.584540719696969546e+01 5.696630366161615910e+01 7.084146148989898961e+01
5.591047190656565391e+01 5.709734059343434609e+01 7.092451862373737015e+01
5.596926294191919027e+01 5.720016571969696884e+01 7.102118844696970257e+01
5.603941761363636687e+01 5.733739741161615910e+01 7.109923453282827666e+01
5.613407512626262275e+01 5.746220012626262275e+01 7.118884154040404155e+01
5.621227904040404155e+01 5.757275883838384090e+01 7.127462121212121815e+01
5.624281881313131493e+01 5.768300189393939092e+01 7.135250946969696884e+01
5.631620896464646364e+01 5.780153093434343248e+01 7.141201073232323893e+01
5.638849431818182012e+01 5.791579861111111427e+01 7.149834280303029743e+01
5.645928030303030454e+01 5.803708964646464352e+01 7.157623106060606233e+01
5.649068813131312794e+01 5.813604797979797922e+01 7.168197601010101039e+01
5.656897095959595845e+01 5.824084595959595845e+01 7.173327020202020776e+01
5.641157670454545325e+01 5.802915877525252597e+01 7.153594539141414543e+01
5.581470959595959869e+01 5.720154671717171624e+01 7.085164141414141170e+01
5.533881786616161946e+01 5.633692392676767469e+01 7.017167771464646364e+01
5.506372316919191690e+01 5.583471433080808310e+01 6.988237847222222854e+01
5.500161773989898961e+01 5.570190183080808310e+01 6.981853693181818699e+01
5.501929450757575779e+01 5.565407986111111427e+01 6.981758996212121815e+01
5.501432291666666430e+01 5.563143150252525260e+01 6.979588857323231821e+01
5.497186710858586167e+01 5.553925978535353636e+01 6.974869791666667140e+01
5.496002998737373701e+01 5.552694917929292728e+01 6.973291508838383379e+01
5.498488794191919027e+01 5.555938289141413833e+01 6.976897885101010388e+01
5.496610637626262275e+01 5.551029829545454675e+01 6.973567708333332860e+01
5.487302714646464352e+01 5.534919507575757791e+01 6.962870896464646364e+01
5.475485321969696884e+01 5.520103377525252597e+01 6.952095170454545325e+01
5.474936868686868507e+01 5.515877525252525260e+01 6.951594065656566102e+01
5.479588857323232531e+01 5.518225220959595845e+01 6.953152619949494806e+01
5.486367582070707272e+01 5.528918087121212466e+01 6.963750789141414543e+01
5.493095012626262275e+01 5.542242739898989612e+01 6.971646148989898961e+01
5.502347695707070585e+01 5.558203125000000000e+01 6.984418402777777146e+01
5.514263731060606233e+01 5.567530776515151558e+01 6.992609690656566102e+01
5.515033143939393767e+01 5.577264835858586167e+01 6.999976325757575069e+01
5.521543560606060908e+01 5.587673611111111427e+01 7.005713383838383379e+01
5.521259469696969546e+01 5.596717171717171624e+01 7.009627525252524549e+01
5.524751420454545325e+01 5.602118844696969546e+01 7.014034880050505194e+01
5.528764204545454675e+01 5.610740214646464352e+01 7.020857007575757791e+01
5.534663036616161946e+01 5.615613162878787534e+01 7.025793087121212466e+01
5.543848642676767469e+01 5.626566445707070585e+01 7.032579703282827666e+01
5.551136363636363313e+01 5.636205808080808310e+01 7.042566287878787534e+01
5.554703282828283051e+01 5.649715909090909349e+01 7.050268308080808310e+01
5.563356218434343248e+01 5.659284248737373701e+01 7.056017203282827666e+01
5.570130997474747403e+01 5.671425189393939092e+01 7.064149305555555713e+01
5.574885574494949481e+01 5.681861584595959869e+01 7.070971433080808310e+01
5.576913667929292728e+01 5.693690814393939092e+01 7.080401672979797922e+01
5.586174242424242209e+01 5.704529671717171624e+01 7.089362373737374412e+01
5.593331755050505194e+01 5.714749053030303116e+01 7.095494002525252597e+01
5.600323547979797922e+01 5.724392361111111427e+01 7.103922032828282340e+01
5.606762941919191690e+01 5.735156250000000000e+01 7.112934027777777146e+01
5.609154040404040131e+01 5.745943813131312794e+01 7.117629419191919737e+01
5.615463226010101039e+01 5.757997948232323182e+01 7.126605902777777146e+01
5.622881155303030454e+01 5.767009943181817988e+01 7.132650726010101039e+01
5.627564709595959869e+01 5.776286300505050519e+01 7.140080492424242209e+01
5.602225378787878896e+01 5.745075757575757791e+01 7.109895833333332860e+01
5.535041824494949481e+01 5.647257733585858830e+01 7.027829071969696884e+01
5.488383838383838054e+01 5.552541035353535648e+01 6.960321969696970257e+01
5.461959438131312794e+01 5.506088226010101039e+01 6.928215751262625588e+01
5.454178503787878896e+01 5.490179135101010388e+01 6.918919665404040131e+01
5.452683080808080973e+01 5.485574494949494806e+01 6.919049873737374412e+01
5.447080176767676818e+01 5.479829545454545325e+01 6.915735479797979224e+01
5.441927083333333570e+01 5.465980113636363313e+01 6.905026830808080263e+01
5.443264678030303116e+01 5.463608743686868507e+01 6.905164930555555713e+01
5.444294507575757791e+01 5.467495265151514872e+01 6.907236426767676107e+01
5.444570707070707272e+01 5.464062500000000000e+01 6.905634469696970257e+01
5.434880050505050519e+01 5.452351641414141170e+01 6.896732954545454675e+01
5.423709753787878896e+01 5.437330334595959869e+01 6.886336016414141170e+01
5.422620738636363313e+01 5.434947127525252597e+01 6.884820864898989612e+01
5.428685290404040131e+01 5.441153724747474740e+01 6.888644255050505194e+01
5.441654829545454675e+01 5.453949652777777857e+01 6.901661142676768179e+01
5.450950915404040131e+01 5.469369476010101039e+01 6.915407986111111427e+01
5.454348169191919027e+01 5.481747159090909349e+01 6.925639204545454675e+01
5.467566287878787534e+01 5.497522095959595845e+01 6.937231691919191690e+01
5.471618529040404155e+01 5.507082544191919027e+01 6.944235321969696884e+01
5.474921085858586167e+01 5.514851641414141170e+01 6.949431818181818699e+01
5.481186868686868507e+01 5.526388888888888573e+01 6.955950126262625588e+01
5.483574021464646364e+01 5.530512152777777857e+01 6.960262784090909349e+01
5.487302714646464352e+01 5.541358901515151558e+01 6.968221275252524549e+01
5.493631628787878896e+01 5.549802714646464352e+01 6.975560290404040131e+01
5.498334911616161946e+01 5.560298295454545325e+01 6.981668244949494806e+01
5.507776988636363313e+01 5.572312973484848442e+01 6.992783301767676107e+01
5.513222064393939092e+01 5.584339488636363313e+01 7.001842645202020776e+01
5.522999526515151558e+01 5.596484375000000000e+01 7.008447758838383379e+01
5.530239898989898961e+01 5.612326388888888573e+01 7.019255050505050519e+01
5.539299242424242209e+01 5.623737373737373701e+01 7.026830808080808310e+01
5.550343276515151558e+01 5.639658301767676818e+01 7.037937973484848442e+01
5.554703282828283051e+01 5.649494949494949481e+01 7.045612373737374412e+01
5.560018150252525260e+01 5.662369791666666430e+01 7.056356534090909349e+01
5.570426925505050519e+01 5.674546243686868507e+01 7.064429450757575069e+01
5.577091224747474740e+01 5.684161931818182012e+01 7.072403724747475451e+01
5.585073390151514872e+01 5.698899147727272663e+01 7.082421875000000000e+01
5.586667455808080973e+01 5.711036142676767469e+01 7.091654829545454675e+01
5.595849116161615910e+01 5.723405934343434609e+01 7.099826388888888573e+01
5.600343276515151558e+01 5.735081281565656752e+01 7.107808554292928704e+01
5.609418402777777857e+01 5.744677241161615910e+01 7.114989741161616621e+01
5.612582859848485128e+01 5.756806344696969546e+01 7.124782986111111427e+01
5.599992108585858830e+01 5.740285669191919027e+01 7.108388573232323893e+01
5.540187026515151558e+01 5.649514678030303116e+01 7.025761521464646364e+01
5.473887310606060908e+01 5.543268623737373701e+01 6.948555871212121815e+01
5.439551767676767469e+01 5.478598484848485128e+01 6.904292929292928704e+01
5.432196969696969546e+01 5.457875631313131493e+01 6.895785984848484418e+01
5.434509154040404155e+01 5.453053977272727337e+01 6.892290088383838054e+01
5.432698074494949481e+01 5.452268781565656752e+01 6.891489109848484418e+01
5.424593592171716949e+01 5.442017834595959869e+01 6.884694602272726627e+01
5.421579071969696884e+01 5.435104955808080973e+01 6.882090435606060908e+01
5.425710227272727337e+01 5.437894570707070585e+01 6.883585858585858830e+01
5.426905776515151558e+01 5.438679766414141170e+01 6.884592013888888573e+01
5.421168718434343248e+01 5.425130208333333570e+01 6.873409880050505194e+01
5.405417455808080973e+01 5.409836647727272663e+01 6.862630208333332860e+01
5.404391571969696884e+01 5.405117582070707272e+01 6.857311395202020776e+01
5.409576231060606233e+01 5.407035195707070585e+01 6.862211963383838054e+01
5.417250631313131493e+01 5.418986742424242209e+01 6.871022727272726627e+01
5.428440656565656752e+01 5.433933080808080973e+01 6.884690656565656752e+01
5.436509627525252597e+01 5.452324021464646364e+01 6.896437026515151558e+01
5.443785511363636687e+01 5.462724905303030454e+01 6.909410511363635976e+01
5.453444602272727337e+01 5.475319602272727337e+01 6.916433869949494806e+01
5.457990056818182012e+01 5.486777935606060908e+01 6.925224905303029743e+01
5.458609532828283051e+01 5.496393623737373701e+01 6.934966856060606233e+01
5.467309816919191690e+01 5.504083806818182012e+01 6.936612215909090651e+01
5.474124053030303116e+01 5.512855113636363313e+01 6.947514204545454675e+01
5.478164457070707272e+01 5.521677714646464352e+01 6.951081123737374412e+01
5.490210700757575779e+01 5.535996685606060908e+01 6.959213226010101039e+01
5.493907828282828376e+01 5.545028409090909349e+01 6.966272095959595845e+01
5.499925031565656752e+01 5.556885258838384090e+01 6.977024147727273373e+01
5.506498579545454675e+01 5.570434816919191690e+01 6.984513099747475451e+01
5.514812184343434609e+01 5.580595012626262275e+01 6.996993371212121815e+01
5.523334911616161946e+01 5.594720643939393767e+01 7.005689709595959869e+01
5.526179766414141170e+01 5.607256155303030454e+01 7.013837594696970257e+01
5.532504734848485128e+01 5.624471275252525260e+01 7.021077967171717660e+01
5.534398674242424221e+01 5.633988320707070585e+01 7.029032512626262985e+01
5.548780776515151558e+01 5.646066130050505194e+01 7.039421559343433898e+01
5.554217960858586167e+01 5.659805082070707272e+01 7.050682607323231821e+01
5.564247948232323182e+01 5.669550978535353636e+01 7.057492897727273373e+01
5.567751736111111427e+01 5.680693655303030454e+01 7.065305397727273373e+01
5.573693970959595845e+01 5.691844223484848442e+01 7.073441445707071296e+01
5.582504734848485128e+01 5.703117108585858830e+01 7.082078598484848442e+01
5.591615372474747403e+01 5.716425978535353636e+01 7.091867897727273373e+01
5.597265625000000000e+01 5.726416508838384090e+01 7.097644412878787534e+01
5.572320864898989612e+01 5.699625157828283051e+01 7.071342329545454675e+01
5.506534090909090651e+01 5.596433080808080973e+01 6.986584595959595845e+01
5.446306818181817988e+01 5.490104166666666430e+01 6.905271464646465063e+01
5.409296085858586167e+01 5.429545454545454675e+01 6.863162878787878185e+01
5.400019728535353636e+01 5.409773516414141170e+01 6.853413036616161946e+01
5.402489741161615910e+01 5.409102746212121104e+01 6.853862847222222854e+01
5.403444602272727337e+01 5.406348642676767469e+01 6.852671243686869218e+01
5.397656250000000000e+01 5.399850063131312794e+01 6.847750946969696884e+01
5.396030618686868507e+01 5.393095012626262275e+01 6.843742108585858830e+01
5.398106060606060908e+01 5.398311237373737725e+01 6.850363005050505194e+01
5.398638731060606233e+01 5.395750473484848442e+01 6.847581281565656752e+01
5.388060290404040131e+01 5.379569128787878896e+01 6.837018623737374412e+01
5.379040404040404155e+01 5.367045454545454675e+01 6.825568181818181301e+01
5.376850536616161946e+01 5.359868213383838054e+01 6.820253314393939092e+01
5.384059343434343248e+01 5.363825757575757791e+01 6.825047348484848442e+01
5.390242266414141170e+01 5.376242897727272663e+01 6.834623579545454675e+01
5.401171875000000000e+01 5.395174400252525260e+01 6.850193339646465063e+01
5.410811237373737725e+01 5.412073863636363313e+01 6.862073863636364024e+01
5.420620265151514872e+01 5.427754103535353636e+01 6.876270517676768179e+01
5.425406407828283051e+01 5.438963857323232531e+01 6.884386837121212466e+01
5.434347380050505194e+01 5.449041193181817988e+01 6.890565814393939092e+01
5.432548137626262275e+01 5.456695864898989612e+01 6.895205965909090651e+01
5.440313289141413833e+01 5.465060763888888573e+01 6.901724273989898961e+01
5.444981060606060908e+01 5.474479166666666430e+01 6.907891414141414543e+01
5.450366950757575779e+01 5.482611268939393767e+01 6.916938920454545325e+01
5.459477588383838054e+01 5.494878472222222143e+01 6.926207386363635976e+01
5.464086174242424221e+01 5.506747159090909349e+01 6.934288194444444287e+01
5.471279198232323182e+01 5.518943339646464352e+01 6.945411142676768179e+01
5.482185132575757791e+01 5.533084753787878896e+01 6.953050031565656752e+01
5.491568023989898961e+01 5.546018781565656752e+01 6.966425978535353636e+01
5.497601010101010388e+01 5.559027777777777857e+01 6.974431818181818699e+01
5.505196496212121104e+01 5.570190183080808310e+01 6.982863794191919737e+01
5.514910827020202078e+01 5.586359690656565391e+01 6.993746054292928704e+01
5.520359848484848442e+01 5.598248106060606233e+01 7.005334595959595845e+01
5.527229324494949481e+01 5.612377683080808310e+01 7.013955965909090651e+01
5.533901515151514872e+01 5.624305555555555713e+01 7.020643939393939092e+01
5.538510101010101039e+01 5.633459595959595845e+01 7.029324494949494806e+01
5.543651357323232531e+01 5.646034564393939092e+01 7.038663983585858830e+01
5.553559027777777857e+01 5.654711174242424221e+01 7.045888573232323893e+01
5.560274621212121104e+01 5.668465909090909349e+01 7.055918560606060908e+01
5.568434343434343248e+01 5.681281565656565391e+01 7.062799873737374412e+01
5.563667929292929415e+01 5.680918560606060908e+01 7.057733585858585457e+01
5.513991477272727337e+01 5.607346906565656752e+01 6.997940340909090651e+01
5.443244949494949481e+01 5.498469065656565391e+01 6.910732323232323893e+01
5.405662089646464352e+01 5.423859690656565391e+01 6.854762468434343248e+01
5.386474116161615910e+01 5.391019570707070585e+01 6.835369318181818699e+01
5.388750789141413833e+01 5.386746369949494806e+01 6.835720486111111427e+01
5.391224747474747403e+01 5.385432449494949481e+01 6.837578914141414543e+01
5.388387784090909349e+01 5.382358743686868507e+01 6.837125157828282340e+01
5.386363636363636687e+01 5.379450757575757791e+01 6.834122474747475451e+01
5.391493055555555713e+01 5.383428030303030454e+01 6.836789772727273373e+01
5.391358901515151558e+01 5.383451704545454675e+01 6.840727588383838054e+01
5.378712910353535648e+01 5.370269097222222143e+01 6.827955334595959869e+01
5.369685132575757791e+01 5.358479324494949481e+01 6.818169981060606233e+01
5.369294507575757791e+01 5.349518623737373701e+01 6.813044507575757791e+01
5.366954703282828376e+01 5.349530460858586167e+01 6.815344854797979224e+01
5.376183712121212466e+01 5.360811237373737725e+01 6.823453282828282340e+01
5.385724431818182012e+01 5.376744002525252597e+01 6.836560921717172334e+01
5.395782039141413833e+01 5.391520675505050519e+01 6.849396306818181301e+01
5.404281092171716949e+01 5.407611268939393767e+01 6.862551294191919737e+01
5.414457070707070585e+01 5.424321338383838054e+01 6.874226641414141170e+01
5.423011363636363313e+01 5.434548611111111427e+01 6.883854166666667140e+01
5.433222853535353636e+01 5.446732954545454675e+01 6.892787247474747403e+01
5.437215909090909349e+01 5.455902777777777857e+01 6.899826388888888573e+01
5.441796875000000000e+01 5.465029198232323182e+01 6.905133364898989612e+01
5.441512784090909349e+01 5.473504577020202078e+01 6.912235637626262985e+01
5.451302083333333570e+01 5.484414457070707272e+01 6.921851325757575069e+01
5.460973011363636687e+01 5.495647885101010388e+01 6.930938289141414543e+01
5.470880681818182012e+01 5.514551767676767469e+01 6.942945075757575069e+01
5.476747948232323182e+01 5.521602746212121104e+01 6.952079387626262985e+01
5.485302241161615910e+01 5.537401357323232531e+01 6.963001104797979224e+01
5.494093276515151558e+01 5.554651988636363313e+01 6.974854008838383379e+01
5.500576073232323182e+01 5.565916982323232531e+01 6.982630997474747403e+01
5.508727904040404155e+01 5.580208333333333570e+01 6.993276515151515582e+01
5.520375631313131493e+01 5.595896464646464352e+01 7.006139520202020776e+01
5.525982481060606233e+01 5.607942708333333570e+01 7.015613162878787534e+01
5.533605587121212466e+01 5.620726799242424221e+01 7.024435763888888573e+01
5.538466698232323182e+01 5.632942708333333570e+01 7.030812026515151558e+01
5.550773358585858830e+01 5.648832070707070585e+01 7.043781565656566102e+01
5.550907512626262275e+01 5.660045770202020066e+01 7.048855744949494806e+01
5.561328125000000000e+01 5.673891256313131493e+01 7.061044034090909349e+01
5.569113005050505194e+01 5.687058080808080973e+01 7.068450126262625588e+01
5.571496212121212466e+01 5.691414141414141170e+01 7.070407196969696884e+01
5.531032986111111427e+01 5.639555713383838054e+01 7.021800031565656752e+01
5.471385732323232531e+01 5.544333964646464352e+01 6.949731691919191690e+01
5.425071022727272663e+01 5.466737689393939092e+01 6.890096275252524549e+01
5.406234217171716949e+01 5.432670454545454675e+01 6.871006944444444287e+01
5.406968118686868507e+01 5.425418244949494806e+01 6.867321654040404155e+01
5.409548611111111427e+01 5.421354166666666430e+01 6.864646464646465063e+01
5.405401672979797922e+01 5.416781092171716949e+01 6.861951546717172334e+01
5.402075441919191690e+01 5.407567866161615910e+01 6.856021148989898961e+01
5.403128945707070585e+01 5.407753314393939092e+01 6.856443339646465063e+01
5.405930397727272663e+01 5.412764362373737725e+01 6.858929135101010388e+01
5.401333648989898961e+01 5.410598169191919027e+01 6.857331123737374412e+01
5.394136679292929415e+01 5.398129734848485128e+01 6.849455492424242209e+01
5.388900726010101039e+01 5.389484690656565391e+01 6.843525094696970257e+01
5.389401830808080973e+01 5.386182133838384090e+01 6.841958648989898961e+01
5.388391729797979934e+01 5.393568497474747403e+01 6.848413825757575069e+01
5.400856218434343248e+01 5.404659880050505194e+01 6.858968592171717660e+01
5.413892834595959869e+01 5.422289299242424221e+01 6.872336647727273373e+01
5.422948232323232531e+01 5.439662247474747403e+01 6.884738005050505194e+01
5.428918087121212466e+01 5.452418718434343248e+01 6.893690814393939092e+01
5.435081281565656752e+01 5.461643781565656752e+01 6.898843907828282340e+01
5.441327335858586167e+01 5.474108270202020066e+01 6.907867739898989612e+01
5.452083333333333570e+01 5.485669191919191690e+01 6.919712752525252597e+01
5.455693655303030454e+01 5.492546559343434609e+01 6.926416508838383379e+01
5.462902462121212466e+01 5.506242108585858830e+01 6.933057133838383379e+01
5.464066445707070585e+01 5.517112531565656752e+01 6.940597380050505194e+01
5.476507260101010388e+01 5.527690972222222143e+01 6.949218750000000000e+01
5.478866792929292728e+01 5.537326388888888573e+01 6.955445075757575069e+01
5.490167297979797922e+01 5.553424873737373701e+01 6.967234848484848442e+01
5.497873263888888573e+01 5.562472380050505194e+01 6.973820233585858830e+01
5.503377525252525260e+01 5.573721590909090651e+01 6.983585858585858830e+01
5.511596433080808310e+01 5.589263731060606233e+01 6.994251104797979224e+01
5.520730744949494806e+01 5.604411300505050519e+01 7.002217487373737015e+01
5.526554608585858830e+01 5.621330492424242209e+01 7.013581123737374412e+01
5.537642045454545325e+01 5.633633207070707272e+01 7.024053030303029743e+01
5.539812184343434609e+01 5.643931502525252597e+01 7.029553345959595845e+01
5.549435763888888573e+01 5.657421875000000000e+01 7.042238794191919737e+01
5.555958017676767469e+01 5.671251578282828376e+01 7.050512941919191690e+01
5.562290877525252597e+01 5.681719539141413833e+01 7.060207544191919737e+01
5.566591698232323182e+01 5.692980587121212466e+01 7.068817077020202078e+01
5.574980271464646364e+01 5.704825599747474740e+01 7.075816761363635976e+01
5.586284722222222143e+01 5.719239267676767469e+01 7.086126893939393767e+01
5.586351799242424221e+01 5.725729955808080973e+01 7.088608743686869218e+01
5.555200441919191690e+01 5.689433396464646364e+01 7.053716856060606233e+01
5.495616319444444287e+01 5.596721117424242209e+01 6.977544981060606233e+01
5.442593907828283051e+01 5.505977746212121104e+01 6.913016887626262985e+01
5.422522095959595845e+01 5.459343434343434609e+01 6.881691919191919737e+01
5.414291351010101039e+01 5.443584280303030454e+01 6.873934659090909349e+01
5.416177398989898961e+01 5.442992424242424221e+01 6.874857954545454675e+01
5.415885416666666430e+01 5.438533775252525260e+01 6.872498421717172334e+01
5.410996685606060908e+01 5.433755523989898961e+01 6.869456281565656752e+01
5.414674084595959869e+01 5.432650726010101039e+01 6.868761837121212466e+01
5.415755208333333570e+01 5.435988794191919027e+01 6.872747001262625588e+01
5.413514046717171624e+01 5.431648516414141170e+01 6.871405460858585457e+01
5.403152619949494806e+01 5.416710069444444287e+01 6.857871685606060908e+01
5.389942392676767469e+01 5.401400726010101039e+01 6.846760574494949481e+01
5.396377840909090651e+01 5.397829861111111427e+01 6.847435290404040131e+01
5.397447127525252597e+01 5.403318339646464352e+01 6.852339804292928704e+01
5.410404829545454675e+01 5.415534248737373701e+01 6.864555713383838054e+01
5.419401041666666430e+01 5.433889678030303116e+01 6.880022885101010388e+01
5.430973800505050519e+01 5.452012310606060908e+01 6.890964330808080263e+01
5.435629734848485128e+01 5.464985795454545325e+01 6.902564709595959869e+01
5.448867582070707272e+01 5.480780460858586167e+01 6.913719223484848442e+01
5.451014046717171624e+01 5.490897253787878896e+01 6.919811395202020776e+01
5.458254419191919027e+01 5.499068813131312794e+01 6.926388888888888573e+01
5.461284722222222143e+01 5.506502525252525260e+01 6.931502525252524549e+01
5.472885101010101039e+01 5.521575126262626299e+01 6.941745580808080263e+01
5.471567234848485128e+01 5.529742739898989612e+01 6.950228851010101039e+01
5.484761679292929415e+01 5.540317234848485128e+01 6.958278093434343248e+01
5.486612215909090651e+01 5.550674715909090651e+01 6.968083175505050519e+01
5.499076704545454675e+01 5.565238320707070585e+01 6.975844381313130782e+01
5.503768150252525260e+01 5.576716382575757791e+01 6.986343907828282340e+01
5.519203756313131493e+01 5.591678503787878896e+01 6.998449337121212466e+01
5.522036773989898961e+01 5.605496369949494806e+01 7.008574021464646364e+01
5.532279829545454675e+01 5.618974905303030454e+01 7.019890309343433898e+01
5.535037878787878896e+01 5.630539772727272663e+01 7.026089015151515582e+01
5.545205965909090651e+01 5.643911773989898961e+01 7.035625789141414543e+01
5.550142045454545325e+01 5.658364898989898961e+01 7.046117424242424931e+01
5.558128156565656752e+01 5.670486111111111427e+01 7.052777777777777146e+01
5.567230902777777857e+01 5.685854640151514872e+01 7.065384311868686495e+01
5.574127998737373701e+01 5.698086332070707272e+01 7.073859690656566102e+01
5.577718592171716949e+01 5.711020359848485128e+01 7.084663036616161946e+01
5.588375946969696884e+01 5.723982007575757791e+01 7.093710542929292728e+01
5.593738162878787534e+01 5.734678819444444287e+01 7.101550662878787534e+01
5.600110479797979934e+01 5.747032828282828376e+01 7.110385101010101039e+01
5.604407354797979934e+01 5.756001420454545325e+01 7.116765309343433898e+01
5.574692234848485128e+01 5.718805239898989612e+01 7.082110164141414543e+01
5.512614425505050519e+01 5.617223011363636687e+01 7.001235006313130782e+01
5.460120738636363313e+01 5.522620738636363313e+01 6.933873895202020776e+01
5.429265309343434609e+01 5.470695233585858830e+01 6.897383996212121815e+01
5.431569602272727337e+01 5.460278566919191690e+01 6.892933238636364024e+01
5.429943970959595845e+01 5.457153566919191690e+01 6.893280460858585457e+01
5.430981691919191690e+01 5.458680555555555713e+01 6.894933712121212466e+01
5.430409564393939092e+01 5.456230271464646364e+01 6.893398832070707272e+01
5.434962910353535648e+01 5.458368844696969546e+01 6.895426925505050519e+01
5.435834911616161946e+01 5.460850694444444287e+01 6.901649305555555713e+01
5.429190340909090651e+01 5.455184659090909349e+01 6.894389204545454675e+01
5.413320707070707272e+01 5.435385101010101039e+01 6.877777777777777146e+01
5.405835700757575779e+01 5.417215119949494806e+01 6.864942392676768179e+01
5.405425347222222143e+01 5.415400094696969546e+01 6.866362847222222854e+01
5.411312342171716949e+01 5.420766256313131493e+01 6.871918402777777146e+01
5.419038036616161946e+01 5.430969854797979934e+01 6.880291193181818699e+01
5.429987373737373701e+01 5.447316919191919027e+01 6.893418560606060908e+01
5.438723169191919027e+01 5.465648674242424221e+01 6.905137310606060908e+01
5.450714172979797922e+01 5.480591066919191690e+01 6.917822758838383379e+01
5.457504734848485128e+01 5.495714962121212466e+01 6.926870265151515582e+01
5.464232165404040131e+01 5.505898832070707272e+01 6.936612215909090651e+01
5.468363320707070585e+01 5.514685921717171624e+01 6.943000315656566102e+01
5.468497474747474740e+01 5.518828914141413833e+01 6.945138888888888573e+01
5.476740056818182012e+01 5.526171875000000000e+01 6.953318339646465063e+01
5.480571338383838054e+01 5.531613005050505194e+01 6.957149621212121815e+01
5.484611742424242209e+01 5.540546085858586167e+01 6.962626262626262985e+01
5.492574179292929415e+01 5.554884785353535648e+01 6.970825441919191690e+01
5.497427398989898961e+01 5.568718434343434609e+01 6.977856691919191690e+01
5.507642834595959869e+01 5.584741950757575779e+01 6.991717960858585457e+01
5.515198863636363313e+01 5.594760101010101039e+01 7.000789141414141170e+01
5.525552398989898961e+01 5.608633207070707272e+01 7.012405303030303116e+01
5.531530145202020066e+01 5.621823705808080973e+01 7.019945549242424931e+01
5.537539457070707272e+01 5.633467487373737725e+01 7.028779987373737015e+01
5.541639046717171624e+01 5.644038036616161946e+01 7.036178188131313505e+01
5.550682607323232531e+01 5.653965435606060908e+01 7.044748263888888573e+01
5.554162720959595845e+01 5.665242266414141170e+01 7.055014993686869218e+01
5.566946811868687206e+01 5.678263099747474740e+01 7.063979640151515582e+01
5.570209911616161946e+01 5.691863952020202078e+01 7.072514204545454675e+01
5.581332859848485128e+01 5.704265309343434609e+01 7.080764678030303116e+01
5.583384627525252597e+01 5.718675031565656752e+01 7.089950284090909349e+01
5.594026199494949481e+01 5.727643623737373701e+01 7.098540088383838054e+01
5.566785037878787534e+01 5.697214330808080973e+01 7.069404987373737015e+01
5.498042929292929415e+01 5.592408459595959869e+01 6.981928661616161946e+01
5.437097537878787534e+01 5.485992739898989612e+01 6.903338068181818699e+01
5.401590119949494806e+01 5.425153882575757791e+01 6.860191761363635976e+01
5.392980587121212466e+01 5.403113162878787534e+01 6.849199021464646364e+01
5.394728535353535648e+01 5.400331439393939092e+01 6.851010101010101039e+01
5.396405460858586167e+01 5.404154829545454675e+01 6.853791824494949481e+01
5.396476483585858830e+01 5.399506786616161946e+01 6.849759311868686495e+01
5.393517203282828376e+01 5.397620738636363313e+01 6.849025410353534937e+01
5.400800978535353636e+01 5.400958806818182012e+01 6.851590119949494806e+01
5.396776357323232531e+01 5.399838226010101039e+01 6.850201231060606233e+01
5.392570233585858830e+01 5.386130839646464352e+01 6.839208491161616621e+01
5.375264362373737725e+01 5.370087594696969546e+01 6.825911458333332860e+01
5.375572127525252597e+01 5.364524147727272663e+01 6.822178819444444287e+01
5.379920296717171624e+01 5.367988478535353636e+01 6.827789614898989612e+01
5.386679292929292728e+01 5.383617424242424221e+01 6.841666666666667140e+01
5.397806186868687206e+01 5.402351641414141170e+01 6.853030303030303116e+01
5.412878787878787534e+01 5.419491792929292728e+01 6.870785984848484418e+01
5.422541824494949481e+01 5.434584122474747403e+01 6.881680082070707272e+01
5.430709438131312794e+01 5.449522569444444287e+01 6.893304135101010388e+01
5.437081755050505194e+01 5.458262310606060908e+01 6.899139835858585457e+01
5.439898989898989612e+01 5.468150252525252597e+01 6.904766414141414543e+01
5.443501420454545325e+01 5.475603693181817988e+01 6.911588541666667140e+01
5.448658459595959869e+01 5.483664772727272663e+01 6.917676767676768179e+01
5.459651199494949481e+01 5.499629103535353636e+01 6.929221906565656752e+01
5.463782354797979934e+01 5.509615688131312794e+01 6.937046243686869218e+01
5.471014835858586167e+01 5.520367739898989612e+01 6.944673295454545325e+01
5.479403409090909349e+01 5.532260101010101039e+01 6.951294191919191690e+01
5.486126893939393767e+01 5.547616792929292728e+01 6.963115530303029743e+01
5.490692077020202078e+01 5.560720486111111427e+01 6.973978061868686495e+01
5.500264362373737725e+01 5.573007417929292728e+01 6.983787089646465063e+01
5.509229008838384090e+01 5.586817392676767469e+01 6.995324337121212466e+01
5.514575441919191690e+01 5.600434027777777857e+01 7.004221906565656752e+01
5.523117897727272663e+01 5.612006786616161946e+01 7.012559185606060908e+01
5.533621369949494806e+01 5.627260890151514872e+01 7.022889046717172334e+01
5.540518465909090651e+01 5.637472380050505194e+01 7.031269728535353636e+01
5.545328282828283051e+01 5.648547979797979934e+01 7.040467171717172334e+01
5.553519570707070585e+01 5.658254419191919027e+01 7.046227904040404155e+01
5.562065972222222143e+01 5.673129734848485128e+01 7.055784406565656752e+01
5.566516729797979934e+01 5.682125946969696884e+01 7.061560921717172334e+01
5.566990214646464352e+01 5.692795138888888573e+01 7.069468118686869218e+01
5.578184185606060908e+01 5.706609059343434609e+01 7.078815498737374412e+01
5.583798926767676818e+01 5.715696022727272663e+01 7.086734532828282340e+01
5.562200126262626299e+01 5.689330808080808310e+01 7.058633207070707272e+01
5.496523832070707272e+01 5.581388099747474740e+01 6.971050347222222854e+01
5.424506786616161946e+01 5.469882417929292728e+01 6.886675347222222854e+01
5.385097064393939092e+01 5.399822443181817988e+01 6.836975220959595845e+01
5.369262941919191690e+01 5.374613320707070585e+01 6.820857007575757791e+01
5.371527777777777857e+01 5.371559343434343248e+01 6.821701388888888573e+01
5.380014993686868507e+01 5.372518150252525260e+01 6.825122316919191690e+01
5.374960542929292728e+01 5.372166982323232531e+01 6.824439709595959869e+01
5.376428345959595845e+01 5.370793876262626299e+01 6.823113952020202078e+01
5.378602430555555713e+01 5.375240688131312794e+01 6.827087279040404155e+01
5.380283301767676818e+01 5.374254261363636687e+01 6.825974589646465063e+01
5.369558869949494806e+01 5.361635890151514872e+01 6.814634627525252597e+01
5.359154040404040131e+01 5.347679924242424221e+01 6.805034722222222854e+01
5.356522253787878896e+01 5.340739425505050519e+01 6.798583491161616621e+01
5.361801609848485128e+01 5.344077493686868507e+01 6.802600220959595845e+01
5.369026199494949481e+01 5.355989583333333570e+01 6.814180871212121815e+01
5.388695549242424221e+01 5.376195549242424221e+01 6.831672190656566102e+01
5.386734532828283051e+01 5.396362058080808310e+01 6.843663194444444287e+01
5.403705018939393767e+01 5.413001104797979934e+01 6.859244791666667140e+01
5.411545138888888573e+01 5.425481376262626299e+01 6.872198547979797922e+01
5.421448863636363313e+01 5.441303661616161946e+01 6.882891414141414543e+01
5.424960542929292728e+01 5.451964962121212466e+01 6.887949810606060908e+01
5.434410511363636687e+01 5.461193970959595845e+01 6.894795612373737015e+01
5.436821338383838054e+01 5.469444444444444287e+01 6.901815025252524549e+01
5.447241950757575779e+01 5.479880839646464352e+01 6.911841066919191690e+01
5.453314393939393767e+01 5.490167297979797922e+01 6.917345328282827666e+01
5.455587121212121104e+01 5.500678661616161946e+01 6.922979797979797922e+01
5.463959911616161946e+01 5.509256628787878896e+01 6.933435921717172334e+01
5.472541824494949481e+01 5.523883364898989612e+01 6.946500157828282340e+01
5.479746685606060908e+01 5.539595170454545325e+01 6.955772569444444287e+01
5.490652619949494806e+01 5.553562973484848442e+01 6.965778882575757791e+01
5.496508049242424221e+01 5.569487847222222143e+01 6.977410827020202078e+01
5.506100063131312794e+01 5.582236426767676818e+01 6.986702967171717660e+01
5.513131313131312794e+01 5.595312500000000000e+01 6.997222222222222854e+01
5.521953914141413833e+01 5.609043560606060908e+01 7.006092171717172334e+01
5.528030303030303116e+01 5.623311237373737725e+01 7.016240530303029743e+01
5.534536773989898961e+01 5.635041824494949481e+01 7.023757102272726627e+01
5.542720170454545325e+01 5.646492266414141170e+01 7.034134311868686495e+01
5.550114425505050519e+01 5.660247001262626299e+01 7.042586016414141170e+01
5.551976799242424221e+01 5.669527304292929415e+01 7.048425662878787534e+01
5.560878314393939092e+01 5.682990056818182012e+01 7.055906723484848442e+01
5.570229640151514872e+01 5.695229640151514872e+01 7.066899463383838054e+01
5.577178030303030454e+01 5.705918560606060908e+01 7.075410353535353636e+01
5.540960385101010388e+01 5.661667455808080973e+01 7.035168087121212466e+01
5.468485637626262275e+01 5.546342329545454675e+01 6.942838541666667140e+01
5.403949652777777857e+01 5.441307607323232531e+01 6.860925662878787534e+01
5.369562815656565391e+01 5.379285037878787534e+01 6.816674558080808310e+01
5.359177714646464352e+01 5.361797664141413833e+01 6.805610795454545325e+01
5.363194444444444287e+01 5.361900252525252597e+01 6.805445075757575069e+01
5.370505839646464352e+01 5.364808238636363313e+01 6.813229955808080263e+01
5.372908775252525260e+01 5.368994633838384090e+01 6.816800820707071296e+01
5.376235006313131493e+01 5.376945233585858830e+01 6.824388415404040131e+01
5.386257102272727337e+01 5.385168087121212466e+01 6.831632733585858830e+01
5.380772569444444287e+01 5.378499842171716949e+01 6.826432291666667140e+01
5.366808712121212466e+01 5.358191287878787534e+01 6.809816919191919737e+01
5.350307765151514872e+01 5.342211174242424221e+01 6.794010416666667140e+01
5.353018465909090651e+01 5.336556976010101039e+01 6.790044981060606233e+01
5.357311395202020066e+01 5.342396622474747403e+01 6.795237531565656752e+01
5.368205492424242209e+01 5.357567866161615910e+01 6.810961174242424931e+01
5.377091224747474740e+01 5.375733901515151558e+01 6.826333648989898961e+01
5.392771464646464352e+01 5.394760101010101039e+01 6.842755681818181301e+01
5.402047821969696884e+01 5.412401357323232531e+01 6.855377998737374412e+01
5.413695549242424221e+01 5.427663352272727337e+01 6.868367266414141170e+01
5.414689867424242209e+01 5.434213226010101039e+01 6.872028882575757791e+01
5.418386994949494806e+01 5.443828914141413833e+01 6.876309974747475451e+01
5.426286300505050519e+01 5.454695391414141170e+01 6.887192234848484418e+01
5.433108428030303116e+01 5.465715751262626299e+01 6.894203756313130782e+01
5.438663983585858830e+01 5.472297190656565391e+01 6.899459438131313505e+01
5.444337910353535648e+01 5.485199652777777857e+01 6.908479324494949481e+01
5.448800505050505194e+01 5.496764520202020066e+01 6.915688131313130782e+01
5.462038352272727337e+01 5.508534564393939092e+01 6.927663352272726627e+01
5.467605744949494806e+01 5.520714962121212466e+01 6.936529356060606233e+01
5.474747474747474740e+01 5.533317550505050519e+01 6.945738636363635976e+01
5.482705965909090651e+01 5.545884627525252597e+01 6.955638415404040131e+01
5.489859532828283051e+01 5.560850694444444287e+01 6.965711805555555713e+01
5.499033301767676818e+01 5.574206912878787534e+01 6.975643150252524549e+01
5.506711647727272663e+01 5.587361900252525260e+01 6.983558238636364024e+01
5.511533301767676818e+01 5.600485321969696884e+01 6.992341382575757791e+01
5.518915719696969546e+01 5.612918244949494806e+01 7.002296401515151558e+01
5.519361584595959869e+01 5.625927241161615910e+01 7.008897569444444287e+01
5.530160984848485128e+01 5.637421085858586167e+01 7.018355429292928704e+01
5.538553503787878896e+01 5.648796559343434609e+01 7.029636205808080263e+01
5.536533301767676818e+01 5.646397569444444287e+01 7.024175347222222854e+01
5.483723958333333570e+01 5.571555397727272663e+01 6.957619160353534937e+01
5.410523200757575779e+01 5.450311710858586167e+01 6.860033933080808310e+01
5.348962279040404155e+01 5.356901041666666430e+01 6.788293087121212466e+01
5.322352430555555713e+01 5.313372001262626299e+01 6.757674400252524549e+01
5.322999526515151558e+01 5.305101799242424221e+01 6.752497632575757791e+01
5.326444128787878896e+01 5.303117108585858830e+01 6.756399936868686495e+01
5.328933869949494806e+01 5.303065814393939092e+01 6.758495107323231821e+01
5.325473484848485128e+01 5.302667297979797922e+01 6.758222853535353636e+01
5.329008838383838054e+01 5.308680555555555713e+01 6.763952020202020776e+01
5.334769570707070585e+01 5.314141414141413833e+01 6.767850378787878185e+01
5.330409564393939092e+01 5.306009311868687206e+01 6.758787089646465063e+01
5.316374684343434609e+01 5.289244002525252597e+01 6.745509785353534937e+01
5.309931344696969546e+01 5.278018465909090651e+01 6.736904198232323893e+01
5.307410037878787534e+01 5.276128472222222143e+01 6.735566603535353636e+01
5.314752998737373701e+01 5.286454387626262275e+01 6.746034564393939092e+01
5.329438920454545325e+01 5.306127683080808310e+01 6.762472380050505194e+01
5.344629892676767469e+01 5.326700599747474740e+01 6.780614741161616621e+01
5.355295138888888573e+01 5.343126578282828376e+01 6.793789457070707272e+01
5.361979166666666430e+01 5.362468434343434609e+01 6.808254419191919737e+01
5.371918402777777857e+01 5.376511205808080973e+01 6.820355902777777146e+01
5.380808080808080973e+01 5.388289141414141170e+01 6.828472222222222854e+01
5.389500473484848442e+01 5.401384943181817988e+01 6.836612215909090651e+01
5.392712279040404155e+01 5.408542455808080973e+01 6.844290561868686495e+01
5.403132891414141170e+01 5.422040719696969546e+01 6.855137310606060908e+01
5.411229482323232531e+01 5.433846275252525260e+01 6.864938446969696884e+01
5.418738162878787534e+01 5.443043718434343248e+01 6.871957859848484418e+01
5.421606691919191690e+01 5.455855429292929415e+01 6.880744949494949481e+01
5.424510732323232531e+01 5.469760101010101039e+01 6.885937500000000000e+01
5.435712594696969546e+01 5.481545928030303116e+01 6.899996054292928704e+01
5.449676452020202078e+01 5.498476957070707272e+01 6.910329861111111427e+01
5.454565183080808310e+01 5.511320233585858830e+01 6.922415561868686495e+01
5.462543402777777857e+01 5.524348958333333570e+01 6.932303503787878185e+01
5.468864425505050519e+01 5.538987531565656752e+01 6.941149779040404155e+01
5.480129419191919027e+01 5.550347222222222143e+01 6.949700126262625588e+01
5.484974747474747403e+01 5.565119949494949481e+01 6.958648989898989612e+01
5.493241003787878896e+01 5.576684816919191690e+01 6.969850852272726627e+01
5.499195075757575779e+01 5.588983585858586167e+01 6.978409090909090651e+01
5.513131313131312794e+01 5.606912878787878896e+01 6.990530303030303116e+01
5.516867897727272663e+01 5.617420296717171624e+01 6.997234059343433898e+01
5.521551452020202078e+01 5.630295138888888573e+01 7.006636679292928704e+01
5.532962436868687206e+01 5.640664457070707272e+01 7.015759154040404155e+01
5.536201862373737725e+01 5.653152619949494806e+01 7.023859690656566102e+01
5.527726483585858830e+01 5.646981534090909349e+01 7.014153251262625588e+01
5.464275568181817988e+01 5.552501578282828376e+01 6.933925189393939092e+01
5.385625789141413833e+01 5.428776041666666430e+01 6.835357481060606233e+01
5.340021306818182012e+01 5.339942392676767469e+01 6.767657039141414543e+01
5.314962121212121104e+01 5.301073232323232531e+01 6.740167297979797922e+01
5.312290877525252597e+01 5.294377367424242209e+01 6.737085700757575069e+01
5.313573232323232531e+01 5.296101641414141170e+01 6.740340909090909349e+01
5.315372474747474740e+01 5.298784722222222143e+01 6.743639520202020776e+01
5.319069602272727337e+01 5.296894728535353636e+01 6.742175662878787534e+01
5.322178819444444287e+01 5.303065814393939092e+01 6.749262152777777146e+01
5.322234059343434609e+01 5.306987847222222143e+01 6.753468276515151558e+01
5.320860953282828376e+01 5.299364741161615910e+01 6.745340119949494806e+01
5.304592803030303116e+01 5.281691919191919027e+01 6.731833964646465063e+01
5.298859690656565391e+01 5.270213857323232531e+01 6.721334438131313505e+01
5.300753630050505194e+01 5.270955650252525260e+01 6.723023200757575069e+01
5.309276357323232531e+01 5.281924715909090651e+01 6.734181660353534937e+01
5.314902935606060908e+01 5.302781723484848442e+01 6.747210385101010388e+01
5.334832702020202078e+01 5.323595328282828376e+01 6.767803030303029743e+01
5.347261679292929415e+01 5.344389204545454675e+01 6.785724431818181301e+01
5.358692392676767469e+01 5.361912089646464352e+01 6.799317392676768179e+01
5.365814393939393767e+01 5.376294191919191690e+01 6.808443813131313505e+01
5.377154356060606233e+01 5.390001578282828376e+01 6.819105113636364024e+01
5.381135574494949481e+01 5.399585700757575779e+01 6.828594539141414543e+01
5.386529356060606233e+01 5.409524936868687206e+01 6.836608270202020776e+01
5.394866635101010388e+01 5.422739109848485128e+01 6.845845170454545325e+01
5.403239425505050519e+01 5.433447758838384090e+01 6.853081597222222854e+01
5.408254419191919027e+01 5.446070075757575779e+01 6.861789772727273373e+01
5.415147569444444287e+01 5.456056660353535648e+01 6.870939867424242209e+01
5.422845643939393767e+01 5.470699179292929415e+01 6.882362689393939092e+01
5.432488952020202078e+01 5.484288194444444287e+01 6.892479482323231821e+01
5.442518939393939092e+01 5.500426136363636687e+01 6.902872474747475451e+01
5.451002209595959869e+01 5.513328598484848442e+01 6.914701704545454675e+01
5.457406092171716949e+01 5.528918087121212466e+01 6.926092960858585457e+01
5.467309816919191690e+01 5.544235321969696884e+01 6.934907670454545325e+01
5.479068023989898961e+01 5.558929135101010388e+01 6.946760574494949481e+01
5.485262784090909349e+01 5.571263415404040131e+01 6.957453440656566102e+01
5.494598327020202078e+01 5.585428503787878896e+01 6.965636837121212466e+01
5.500978535353535648e+01 5.598642676767676818e+01 6.975268308080808310e+01
5.509430239898989612e+01 5.613502209595959869e+01 6.987539457070707272e+01
5.513896780303030454e+01 5.624881628787878896e+01 6.993426452020202078e+01
5.519831123737373701e+01 5.637381628787878896e+01 7.003069760101010388e+01
5.534130366161615910e+01 5.651302083333333570e+01 7.015254103535353636e+01
5.533731849747474740e+01 5.663056344696969546e+01 7.023236268939393767e+01
5.530646306818182012e+01 5.656656407828283051e+01 7.012511837121212466e+01
5.466185290404040131e+01 5.567763573232323182e+01 6.936592487373737015e+01
5.396381786616161946e+01 5.449301609848485128e+01 6.841047190656566102e+01
5.339169034090909349e+01 5.360696811868687206e+01 6.772786458333332860e+01
5.319854797979797922e+01 5.320170454545454675e+01 6.744744318181818699e+01
5.316319444444444287e+01 5.313794191919191690e+01 6.742613636363635976e+01
5.321097695707070585e+01 5.316031407828283051e+01 6.748496685606060908e+01
5.324376578282828376e+01 5.318963068181817988e+01 6.753480113636364024e+01
5.327986900252525260e+01 5.322462910353535648e+01 6.755575284090909349e+01
5.331695864898989612e+01 5.330464804292929415e+01 6.763782354797979224e+01
5.334410511363636687e+01 5.332248263888888573e+01 6.764240056818181301e+01
5.323701862373737725e+01 5.320529513888888573e+01 6.752900094696970257e+01
5.306944444444444287e+01 5.296953914141413833e+01 6.733712121212121815e+01
5.300386679292929415e+01 5.284887941919191690e+01 6.722640467171717660e+01
5.301160037878787534e+01 5.282552083333333570e+01 6.722293244949494806e+01
5.310321969696969546e+01 5.295123106060606233e+01 6.734595959595959869e+01
5.324763257575757791e+01 5.314709595959595845e+01 6.749463383838383379e+01
5.331175031565656752e+01 5.328807607323232531e+01 6.765139678030303116e+01
5.341828440656565391e+01 5.352324021464646364e+01 6.780417455808080263e+01
5.356904987373737725e+01 5.372340593434343248e+01 6.795320391414141170e+01
5.364484690656565391e+01 5.385223327020202078e+01 6.806277619949494806e+01
5.371369949494949481e+01 5.394002525252525260e+01 6.813904671717172334e+01
5.377900094696969546e+01 5.403499842171716949e+01 6.820008680555555713e+01
5.383522727272727337e+01 5.415798611111111427e+01 6.826767676767676107e+01
5.388959911616161946e+01 5.422466856060606233e+01 6.833846275252524549e+01
5.388774463383838054e+01 5.431340751262626299e+01 6.839421559343433898e+01
5.401649305555555713e+01 5.444120896464646364e+01 6.849629103535353636e+01
5.405677872474747403e+01 5.452000473484848442e+01 6.855930397727273373e+01
5.414409722222222143e+01 5.465104166666666430e+01 6.864030934343433898e+01
5.421614583333333570e+01 5.475497159090909349e+01 6.872719381313130782e+01
5.432915088383838054e+01 5.491627209595959869e+01 6.885819128787878185e+01
5.438829703282828376e+01 5.509663036616161946e+01 6.895931976010101039e+01
5.451262626262626299e+01 5.521575126262626299e+01 6.906755050505050519e+01
5.453795770202020066e+01 5.534603851010101039e+01 6.917290088383838054e+01
5.468639520202020066e+01 5.545896464646464352e+01 6.926625631313130782e+01
5.465842013888888573e+01 5.560933554292929415e+01 6.933502998737374412e+01
5.474625157828283051e+01 5.572005208333333570e+01 6.942775410353534937e+01
5.480812026515151558e+01 5.585562657828283051e+01 6.954328440656566102e+01
5.488379892676767469e+01 5.596618529040404155e+01 6.961233428030303116e+01
5.498011363636363313e+01 5.609154040404040131e+01 6.970785984848484418e+01
5.499763257575757791e+01 5.612815656565656752e+01 6.971196338383838054e+01
5.447873263888888573e+01 5.543027935606060908e+01 6.908337279040404155e+01
5.370273042929292728e+01 5.419247159090909349e+01 6.807615214646465063e+01
5.305579229797979934e+01 5.315206755050505194e+01 6.726396780303029743e+01
5.271437026515151558e+01 5.260988794191919027e+01 6.686872632575757791e+01
5.261624053030303116e+01 5.244988952020202078e+01 6.674723800505050519e+01
5.266994160353535648e+01 5.246223958333333570e+01 6.675611584595959869e+01
5.269041982323232531e+01 5.245399305555555713e+01 6.678795770202020776e+01
5.271192392676767469e+01 5.244756155303030454e+01 6.679967645202020776e+01
5.272364267676767469e+01 5.248753156565656752e+01 6.683648989898989612e+01
5.278010574494949481e+01 5.257082544191919027e+01 6.689169034090909349e+01
5.273741319444444287e+01 5.251708491161615910e+01 6.683779198232323893e+01
5.259915561868687206e+01 5.233858112373737725e+01 6.669101167929292728e+01
5.249921085858586167e+01 5.218055555555555713e+01 6.655492424242424931e+01
5.252639678030303116e+01 5.213813920454545325e+01 6.654580965909090651e+01
5.256964172979797922e+01 5.219653566919191690e+01 6.663056344696970257e+01
5.269207702020202078e+01 5.242329545454545325e+01 6.679908459595959869e+01
5.281222380050505194e+01 5.261998895202020066e+01 6.694022253787878185e+01
5.296172664141413833e+01 5.281336805555555713e+01 6.709682765151515582e+01
5.303491950757575779e+01 5.301598011363636687e+01 6.725114425505050519e+01
5.319531250000000000e+01 5.316895517676767469e+01 6.738723169191919737e+01
5.321669823232323182e+01 5.328109217171716949e+01 6.749273989898989612e+01
5.328338068181817988e+01 5.341832386363636687e+01 6.757157512626262985e+01
5.341425978535353636e+01 5.353910195707070585e+01 6.769693023989898961e+01
5.347727272727272663e+01 5.364236111111111427e+01 6.775220959595959869e+01
5.347885101010101039e+01 5.375000000000000000e+01 6.782970328282827666e+01
5.357279829545454675e+01 5.387961647727272663e+01 6.789792455808080263e+01
5.363821811868687206e+01 5.397912720959595845e+01 6.799601483585858830e+01
5.371275252525252597e+01 5.411442550505050519e+01 6.811837121212121815e+01
5.381664299242424221e+01 5.425935132575757791e+01 6.822383996212121815e+01
5.391469381313131493e+01 5.439764835858586167e+01 6.833704229797979224e+01
5.399479166666666430e+01 5.455744949494949481e+01 6.843970959595959869e+01
5.405038667929292728e+01 5.470474273989898961e+01 6.855669981060606233e+01
5.412819602272727337e+01 5.485736268939393767e+01 6.866402304292928704e+01
5.428795770202020066e+01 5.499345012626262275e+01 6.877359532828282340e+01
5.432193023989898961e+01 5.514626736111111427e+01 6.888001104797979224e+01
5.442080965909090651e+01 5.526313920454545325e+01 6.898204703282827666e+01
5.447636521464646364e+01 5.539161142676767469e+01 6.908763415404040131e+01
5.459019886363636687e+01 5.552975063131312794e+01 6.918268623737374412e+01
5.461884469696969546e+01 5.564472853535353636e+01 6.927856691919191690e+01
5.473469065656565391e+01 5.578866792929292728e+01 6.937736742424242209e+01
5.480867266414141170e+01 5.593619791666666430e+01 6.948480902777777146e+01
5.488735006313131493e+01 5.603807607323232531e+01 6.956427556818181301e+01
5.489512310606060908e+01 5.613975694444444287e+01 6.960898042929292728e+01
5.455709438131312794e+01 5.566268150252525260e+01 6.917672821969696884e+01
5.373334911616161946e+01 5.441453598484848442e+01 6.811324179292928704e+01
5.301688762626262275e+01 5.325757575757575779e+01 6.722522095959595845e+01
5.263387784090909349e+01 5.261115056818182012e+01 6.673551925505050519e+01
5.250765467171716949e+01 5.235708648989898961e+01 6.658025568181818699e+01
5.251953125000000000e+01 5.236154513888888573e+01 6.659623579545454675e+01
5.257741477272727337e+01 5.239575441919191690e+01 6.665206755050505194e+01
5.263178661616161946e+01 5.244902146464646364e+01 6.671085858585858830e+01
5.264729324494949481e+01 5.249041193181817988e+01 6.673362531565656752e+01
5.270742582070707272e+01 5.255654198232323182e+01 6.681979955808080263e+01
5.271030618686868507e+01 5.253306502525252597e+01 6.679774305555555713e+01
5.253278882575757791e+01 5.236643781565656752e+01 6.665336963383838054e+01
5.244247159090909349e+01 5.218615845959595845e+01 6.650402462121212466e+01
5.236691130050505194e+01 5.209102746212121104e+01 6.636122948232323893e+01
5.239141414141413833e+01 5.213683712121212466e+01 6.646212121212121815e+01
5.254048295454545325e+01 5.235061553030303116e+01 6.664701704545454675e+01
5.278270991161615910e+01 5.257658617424242209e+01 6.684773516414141170e+01
5.282705965909090651e+01 5.278128945707070585e+01 6.702308238636364024e+01
5.294973169191919027e+01 5.299708017676767469e+01 6.719657512626262985e+01
5.310475852272727337e+01 5.319361584595959869e+01 6.734386837121212466e+01
5.321811868686868507e+01 5.332844065656565391e+01 6.746575126262625588e+01
5.326617739898989612e+01 5.346283143939393767e+01 6.757252209595959869e+01
5.333049242424242209e+01 5.356833964646464352e+01 6.765640782828282340e+01
5.341828440656565391e+01 5.369401041666666430e+01 6.774498895202020776e+01
5.350461647727272663e+01 5.381301294191919027e+01 6.784315814393939092e+01
5.352947443181817988e+01 5.391631155303030454e+01 6.792199337121212466e+01
5.364307133838384090e+01 5.405658143939393767e+01 6.803874684343433898e+01
5.374226641414141170e+01 5.418386994949494806e+01 6.812878787878787534e+01
5.381392045454545325e+01 5.433538510101010388e+01 6.825599747474747403e+01
5.388727114898989612e+01 5.449017518939393767e+01 6.836738478535353636e+01
5.400591856060606233e+01 5.462934027777777857e+01 6.847877209595959869e+01
5.410531092171716949e+01 5.480133364898989612e+01 6.863040561868686495e+01
5.419929766414141170e+01 5.493935448232323182e+01 6.873575599747475451e+01
5.428476167929292728e+01 5.512046243686868507e+01 6.884536773989898961e+01
5.436560921717171624e+01 5.525434027777777857e+01 6.896504103535353636e+01
5.449700126262626299e+01 5.541003787878787534e+01 6.908948863636364024e+01
5.455389835858586167e+01 5.553937815656565391e+01 6.918536931818181301e+01
5.460440340909090651e+01 5.568568497474747403e+01 6.927170138888888573e+01
5.472498421717171624e+01 5.582189078282828376e+01 6.937539457070707272e+01
5.479008838383838054e+01 5.597964015151514872e+01 6.949305555555555713e+01
5.489689867424242209e+01 5.610649463383838054e+01 6.960018150252524549e+01
5.485949337121212466e+01 5.613411458333333570e+01 6.955709438131313505e+01
5.433009785353535648e+01 5.540238320707070585e+01 6.892148042929292728e+01
5.352288510101010388e+01 5.415845959595959869e+01 6.792534722222222854e+01
5.296148989898989612e+01 5.310842803030303116e+01 6.710006313131313505e+01
5.257765151515151558e+01 5.258885732323232531e+01 6.672821969696970257e+01
5.255520044191919027e+01 5.241268150252525260e+01 6.661612215909090651e+01
5.256936553030303116e+01 5.243631628787878896e+01 6.665632891414141170e+01
5.264366319444444287e+01 5.248299400252525260e+01 6.673141571969696884e+01
5.264125631313131493e+01 5.252477904040404155e+01 6.676278409090909349e+01
5.265439551767676818e+01 5.260436395202020066e+01 6.682832228535353636e+01
5.277103061868687206e+01 5.269258996212121104e+01 6.690707859848484418e+01
5.271997316919191690e+01 5.264153251262626299e+01 6.684907670454545325e+01
5.259789299242424221e+01 5.245742582070707272e+01 6.671910511363635976e+01
5.243730271464646364e+01 5.230220170454545325e+01 6.657619160353534937e+01
5.241879734848485128e+01 5.224329229797979934e+01 6.655295138888888573e+01
5.251282354797979934e+01 5.232942708333333570e+01 6.663940183080808310e+01
5.266615372474747403e+01 5.253673453282828376e+01 6.680709438131313505e+01
5.281478851010101039e+01 5.275654987373737725e+01 6.697482638888888573e+01
5.295363794191919027e+01 5.299940814393939092e+01 6.717428188131313505e+01
5.308313604797979934e+01 5.317609690656565391e+01 6.735270675505050519e+01
5.318821022727272663e+01 5.335329861111111427e+01 6.749581755050505194e+01
5.327020202020202078e+01 5.346527777777777857e+01 6.758648989898989612e+01
5.327967171717171624e+01 5.357654671717171624e+01 6.764441287878787534e+01
5.337791982323232531e+01 5.369294507575757791e+01 6.773413825757575069e+01
5.338297032828283051e+01 5.378890467171716949e+01 6.779774305555555713e+01
5.348922821969696884e+01 5.388411458333333570e+01 6.790226483585858830e+01
5.355535827020202078e+01 5.401258680555555713e+01 6.795718907828282340e+01
5.365944602272727337e+01 5.415502683080808310e+01 6.809173768939393767e+01
5.372589172979797922e+01 5.425982481060606233e+01 6.818122632575757791e+01
5.382650726010101039e+01 5.439326862373737725e+01 6.828278882575757791e+01
5.389662247474747403e+01 5.453503787878787534e+01 6.840703914141414543e+01
5.397975852272727337e+01 5.466362847222222143e+01 6.848859690656566102e+01
5.409580176767676818e+01 5.480129419191919027e+01 6.859469696969696884e+01
5.418852588383838054e+01 5.498066603535353636e+01 6.872261679292928704e+01
5.423015309343434609e+01 5.513308869949494806e+01 6.880606849747475451e+01
5.434197443181817988e+01 5.524917140151514872e+01 6.891662720959595845e+01
5.440873579545454675e+01 5.538206281565656752e+01 6.899980271464646364e+01
5.446409406565656752e+01 5.548303345959595845e+01 6.908483270202020776e+01
5.451061395202020066e+01 5.561572758838384090e+01 6.916639046717172334e+01
5.459027777777777857e+01 5.573532196969696884e+01 6.923674242424242209e+01
5.469941603535353636e+01 5.585692866161615910e+01 6.935519255050505194e+01
5.461714804292929415e+01 5.586099273989898961e+01 6.929786142676768179e+01
5.410294349747474740e+01 5.513403566919191690e+01 6.864271622474747403e+01
5.328606376262626299e+01 5.388944128787878896e+01 6.763423295454545325e+01
5.264042771464646364e+01 5.283392518939393767e+01 6.685223327020202078e+01
5.231810290404040131e+01 5.226696654040404155e+01 6.641327335858585457e+01
5.224033301767676818e+01 5.209008049242424221e+01 6.631577493686869218e+01
5.228551136363636687e+01 5.208128156565656752e+01 6.632323232323231821e+01
5.228231534090909349e+01 5.213521938131312794e+01 6.638332544191919737e+01
5.232248263888888573e+01 5.215755208333333570e+01 6.641812657828282340e+01
5.238502209595959869e+01 5.226601957070707272e+01 6.648839962121212466e+01
5.245671559343434609e+01 5.232903251262626299e+01 6.656277619949494806e+01
5.241457544191919027e+01 5.227994791666666430e+01 6.651258680555555713e+01
5.227888257575757791e+01 5.210306186868687206e+01 6.635763888888888573e+01
5.218876262626262275e+01 5.191998106060606233e+01 6.620722853535353636e+01
5.220359848484848442e+01 5.190151515151514872e+01 6.619523358585858830e+01
5.220442708333333570e+01 5.199893465909090651e+01 6.629770359848484418e+01
5.241871843434343248e+01 5.221448863636363313e+01 6.647837752525252597e+01
5.251171875000000000e+01 5.246263415404040131e+01 6.665834122474747403e+01
5.265731534090909349e+01 5.267720170454545325e+01 6.684276357323231821e+01
5.277860637626262275e+01 5.285752051767676818e+01 6.699814551767676107e+01
5.290183080808080973e+01 5.303409090909090651e+01 6.714220328282827666e+01
5.298622948232323182e+01 5.318209438131312794e+01 6.725532670454545325e+01
5.301826862373737725e+01 5.329194286616161946e+01 6.732634943181818699e+01
5.306356534090909349e+01 5.340242266414141170e+01 6.741457544191919737e+01
5.311000631313131493e+01 5.352209595959595845e+01 6.749684343434343248e+01
5.318095012626262275e+01 5.361339962121212466e+01 6.756352588383838054e+01
5.332749368686868507e+01 5.374494949494949481e+01 6.768008207070707272e+01
5.335554766414141170e+01 5.385523200757575779e+01 6.775043402777777146e+01
5.348295454545454675e+01 5.401057449494949481e+01 6.787768308080808310e+01
5.360420612373737725e+01 5.418422506313131493e+01 6.802276672979797922e+01
5.365625000000000000e+01 5.429277146464646364e+01 6.811947601010101039e+01
5.373997790404040131e+01 5.448461174242424221e+01 6.824076704545454675e+01
5.388099747474747403e+01 5.463368055555555713e+01 6.837089646464646364e+01
5.395273042929292728e+01 5.476254734848485128e+01 6.845383522727273373e+01
5.408301767676767469e+01 5.494049873737373701e+01 6.858585858585858830e+01
5.412160669191919027e+01 5.507773042929292728e+01 6.870194128787878185e+01
5.422103851010101039e+01 5.520983270202020066e+01 6.880531881313130782e+01
5.429916351010101039e+01 5.535613952020202078e+01 6.888044507575757791e+01
5.440928819444444287e+01 5.547683869949494806e+01 6.899940814393939092e+01
5.442412405303030454e+01 5.562109375000000000e+01 6.905338541666667140e+01
5.458451704545454675e+01 5.575418244949494806e+01 6.918978851010101039e+01
5.462476325757575779e+01 5.590522411616161946e+01 6.927438446969696884e+01
5.464532039141413833e+01 5.600422190656565391e+01 6.932477114898989612e+01
5.422987689393939092e+01 5.549550189393939092e+01 6.885045770202020776e+01
5.349636994949494806e+01 5.429403409090909349e+01 6.789062500000000000e+01
5.276108743686868507e+01 5.319464172979797922e+01 6.704360006313130782e+01
5.240001578282828376e+01 5.253764204545454675e+01 6.658357007575757791e+01
5.224262152777777857e+01 5.229154829545454675e+01 6.639808238636364024e+01
5.230295138888888573e+01 5.230815972222222143e+01 6.645367739898989612e+01
5.236951546717171624e+01 5.236115056818182012e+01 6.650872001262625588e+01
5.242155934343434609e+01 5.238431186868687206e+01 6.652604166666667140e+01
5.242313762626262275e+01 5.244286616161615910e+01 6.656755050505050519e+01
5.250706281565656752e+01 5.252726483585858830e+01 6.665194917929292728e+01
5.243134469696969546e+01 5.246669823232323182e+01 6.660590277777777146e+01
5.229403409090909349e+01 5.228456439393939092e+01 6.644255050505050519e+01
5.217712279040404155e+01 5.209978693181817988e+01 6.628018465909090651e+01
5.218757891414141170e+01 5.205784406565656752e+01 6.626854482323231821e+01
5.222593118686868507e+01 5.211245265151514872e+01 6.632804608585858830e+01
5.234532828282828376e+01 5.226404671717171624e+01 6.647190656565656752e+01
5.245785984848485128e+01 5.245407196969696884e+01 6.662673611111111427e+01
5.256159248737373701e+01 5.264445233585858830e+01 6.678397253787878185e+01
5.268750000000000000e+01 5.283207070707070585e+01 6.691035353535353636e+01
5.284528882575757791e+01 5.301416508838384090e+01 6.706356534090909349e+01
5.290735479797979934e+01 5.317108585858586167e+01 6.718118686868686495e+01
5.295170454545454675e+01 5.327935606060606233e+01 6.725994318181818699e+01
5.299037247474747403e+01 5.338194444444444287e+01 6.734296085858585457e+01
5.306506470959595845e+01 5.348157354797979934e+01 6.741702178030303116e+01
5.310874368686868507e+01 5.359059343434343248e+01 6.747853535353534937e+01
5.319661458333333570e+01 5.366804766414141170e+01 6.755283301767676107e+01
5.321263415404040131e+01 5.375950915404040131e+01 6.762330334595959869e+01
5.335763888888888573e+01 5.388273358585858830e+01 6.774431818181818699e+01
5.345233585858586167e+01 5.406549873737373701e+01 6.786205808080808310e+01
5.357043087121212466e+01 5.421137152777777857e+01 6.798125789141414543e+01
5.360858585858586167e+01 5.433917297979797922e+01 6.805713383838383379e+01
5.371330492424242209e+01 5.448445391414141170e+01 6.818000315656566102e+01
5.379884785353535648e+01 5.458372790404040131e+01 6.827675189393939092e+01
5.386813446969696884e+01 5.473508522727272663e+01 6.839133522727273373e+01
5.393817077020202078e+01 5.492901672979797922e+01 6.847241950757575069e+01
5.404845328282828376e+01 5.508570075757575779e+01 6.860227272727273373e+01
5.413214172979797922e+01 5.521058238636363313e+01 6.871184501262625588e+01
5.419369476010101039e+01 5.531332859848485128e+01 6.875887784090909349e+01
5.421575126262626299e+01 5.539283459595959869e+01 6.884422348484848442e+01
5.432536300505050519e+01 5.557536300505050519e+01 6.895415088383838054e+01
5.442112531565656752e+01 5.570426925505050519e+01 6.904675662878787534e+01
5.448654513888888573e+01 5.584891887626262275e+01 6.914200599747475451e+01
5.410120738636363313e+01 5.540581597222222143e+01 6.870584753787878185e+01
5.337381628787878896e+01 5.422198547979797922e+01 6.776728219696970257e+01
5.271180555555555713e+01 5.312389520202020066e+01 6.694649621212121815e+01
5.229900568181817988e+01 5.249266098484848442e+01 6.645793876262625588e+01
5.223583491161615910e+01 5.229691445707070585e+01 6.634268465909090651e+01
5.227130681818182012e+01 5.230697601010101039e+01 6.636237373737374412e+01
5.230508207070707272e+01 5.234643308080808310e+01 6.642187500000000000e+01
5.231119791666666430e+01 5.237653882575757791e+01 6.643998579545454675e+01
5.234974747474747403e+01 5.245107323232323182e+01 6.650899621212121815e+01
5.244941603535353636e+01 5.259209280303030454e+01 6.661576704545454675e+01
5.243978851010101039e+01 5.255358270202020066e+01 6.658562184343433898e+01
5.229391571969696884e+01 5.238908617424242209e+01 6.644148516414141170e+01
5.217325599747474740e+01 5.217593907828283051e+01 6.625722064393939092e+01
5.211935763888888573e+01 5.209726167929292728e+01 6.620521622474747403e+01
5.215471117424242209e+01 5.213119476010101039e+01 6.624956597222222854e+01
5.230673926767676818e+01 5.226270517676767469e+01 6.639701704545454675e+01
5.241425978535353636e+01 5.244345801767676818e+01 6.655093907828282340e+01
5.254431029040404155e+01 5.264831912878787534e+01 6.672754892676768179e+01
5.264023042929292728e+01 5.285029987373737725e+01 6.688454861111111427e+01
5.276578282828283051e+01 5.301294191919191690e+01 6.701120580808080263e+01
5.281088226010101039e+01 5.314705650252525260e+01 6.711217645202020776e+01
5.286766098484848442e+01 5.325149936868687206e+01 6.720115214646465063e+01
5.300007891414141170e+01 5.337097537878787534e+01 6.730484532828282340e+01
5.306459122474747403e+01 5.349577809343434609e+01 6.741023516414141170e+01
5.312350063131312794e+01 5.362050189393939092e+01 6.750623421717172334e+01
5.319184027777777857e+01 5.371946022727272663e+01 6.756226325757575069e+01
5.327059659090909349e+01 5.385787563131312794e+01 6.768568497474747403e+01
5.335460069444444287e+01 5.395766256313131493e+01 6.778042140151515582e+01
5.344815340909090651e+01 5.410503472222222143e+01 6.789165088383838054e+01
5.354028566919191690e+01 5.425351167929292728e+01 6.798094223484848442e+01
5.360235164141413833e+01 5.439086174242424221e+01 6.810156250000000000e+01
5.370703125000000000e+01 5.454241635101010388e+01 6.823749210858585457e+01
5.372601010101010388e+01 5.468876262626262275e+01 6.831628787878787534e+01
5.391019570707070585e+01 5.486568813131312794e+01 6.846322601010101039e+01
5.394827178030303116e+01 5.501850536616161946e+01 6.856601167929292728e+01
5.406159248737373701e+01 5.512693339646464352e+01 6.867238794191919737e+01
5.408195233585858830e+01 5.523378314393939092e+01 6.872289299242424931e+01
5.419629892676767469e+01 5.534292140151514872e+01 6.882287720959595845e+01
5.426420454545454675e+01 5.545312500000000000e+01 6.892124368686869218e+01
5.432327178030303116e+01 5.556032986111111427e+01 6.897368213383838054e+01
5.401085069444444287e+01 5.522076231060606233e+01 6.861596433080808310e+01
5.330705492424242209e+01 5.408562184343434609e+01 6.773019255050505194e+01
5.260996685606060908e+01 5.294330018939393767e+01 6.688900726010101039e+01
5.219614109848485128e+01 5.225974589646464352e+01 6.637937973484848442e+01
5.208775252525252597e+01 5.205208333333333570e+01 6.625063131313130782e+01
5.210183869949494806e+01 5.206238162878787534e+01 6.624972380050505194e+01
5.218386994949494806e+01 5.213178661616161946e+01 6.634296085858585457e+01
5.224431818181817988e+01 5.217960858585858830e+01 6.639125631313130782e+01
5.229450757575757791e+01 5.224321338383838054e+01 6.646212121212121815e+01
5.238521938131312794e+01 5.234134311868687206e+01 6.653720801767676107e+01
5.234059343434343248e+01 5.229324494949494806e+01 6.648832070707071296e+01
5.218051609848485128e+01 5.213332544191919027e+01 6.636359690656566102e+01
5.201676925505050519e+01 5.195568970959595845e+01 6.621531723484848442e+01
5.199033301767676818e+01 5.190321180555555713e+01 6.616268150252524549e+01
5.205259627525252597e+01 5.193091066919191690e+01 6.618217329545454675e+01
5.216169507575757791e+01 5.206163194444444287e+01 6.632915088383838054e+01
5.227055713383838054e+01 5.227150410353535648e+01 6.649704071969696884e+01
5.244906092171716949e+01 5.245995107323232531e+01 6.668248895202020776e+01
5.253906250000000000e+01 5.269184027777777857e+01 6.683688446969696884e+01
5.272253787878787534e+01 5.286900252525252597e+01 6.699179292929292728e+01
5.277971117424242209e+01 5.301203440656565391e+01 6.710499526515151558e+01
5.286545138888888573e+01 5.312444760101010388e+01 6.720494002525252597e+01
5.289105902777777857e+01 5.322944286616161946e+01 6.727600220959595845e+01
5.293532986111111427e+01 5.334757733585858830e+01 6.734741950757575069e+01
5.301041666666666430e+01 5.343166035353535648e+01 6.742203282828282340e+01
5.312105429292929415e+01 5.356171085858586167e+01 6.753440656565656752e+01
5.321377840909090651e+01 5.369057765151514872e+01 6.764133522727273373e+01
5.328468276515151558e+01 5.380709438131312794e+01 6.774585700757575069e+01
5.337602588383838054e+01 5.393994633838384090e+01 6.784840593434343248e+01
5.345912247474747403e+01 5.406234217171716949e+01 6.793134469696970257e+01
5.351917613636363313e+01 5.421835542929292728e+01 6.804221906565656752e+01
5.364555713383838054e+01 5.436683238636363313e+01 6.816544349747475451e+01
5.368615845959595845e+01 5.451365214646464352e+01 6.828779987373737015e+01
5.386158459595959869e+01 5.468371212121212466e+01 6.842187500000000000e+01
5.391528566919191690e+01 5.479991319444444287e+01 6.853050031565656752e+01
5.401227114898989612e+01 5.495624210858586167e+01 6.863237847222222854e+01
5.409793244949494806e+01 5.511355744949494806e+01 6.874928977272726627e+01
5.420711016414141170e+01 5.528239425505050519e+01 6.887819602272726627e+01
5.429024621212121104e+01 5.543008207070707272e+01 6.899416035353534937e+01
5.436967329545454675e+01 5.554849273989898961e+01 6.907990056818181301e+01
5.422581281565656752e+01 5.544693023989898961e+01 6.894850852272726627e+01
5.355827809343434609e+01 5.443185763888888573e+01 6.812346117424242209e+01
5.278661616161615910e+01 5.317913510101010388e+01 6.715404040404040131e+01
5.229438920454545325e+01 5.234000157828283051e+01 6.650445864898989612e+01
5.210152304292929415e+01 5.201108743686868507e+01 6.626266571969696884e+01
5.210215435606060908e+01 5.195079703282828376e+01 6.624530460858585457e+01
5.209572285353535648e+01 5.195920138888888573e+01 6.627091224747475451e+01
5.214468907828283051e+01 5.196397569444444287e+01 6.630109690656566102e+01
5.213304924242424221e+01 5.197064393939393767e+01 6.632654671717172334e+01
5.220896464646464352e+01 5.207291666666666430e+01 6.641177398989898961e+01
5.224518623737373701e+01 5.213454861111111427e+01 6.645257260101010388e+01
5.221709280303030454e+01 5.205200441919191690e+01 6.639038825757575069e+01
5.204841382575757791e+01 5.185744160353535648e+01 6.625201231060606233e+01
5.199202967171716949e+01 5.174976325757575779e+01 6.616516729797979224e+01
5.204659880050505194e+01 5.177955334595959869e+01 6.614950284090909349e+01
5.217976641414141170e+01 5.193781565656565391e+01 6.632417929292928704e+01
5.231029040404040131e+01 5.218150252525252597e+01 6.654434974747475451e+01
5.246472537878787534e+01 5.236576704545454675e+01 6.671346275252524549e+01
5.255725220959595845e+01 5.257035195707070585e+01 6.688443023989898961e+01
5.270726799242424221e+01 5.276803188131312794e+01 6.702623895202020776e+01
5.279296875000000000e+01 5.296216066919191690e+01 6.718690814393939092e+01
5.289780618686868507e+01 5.310661300505050519e+01 6.730342487373737015e+01
5.296878945707070585e+01 5.322147253787878896e+01 6.737503945707071296e+01
5.304229797979797922e+01 5.331407828282828376e+01 6.745707070707071296e+01
5.310980902777777857e+01 5.341489109848485128e+01 6.754604640151515582e+01
5.316812657828283051e+01 5.354249526515151558e+01 6.764161142676768179e+01
5.326771622474747403e+01 5.368596117424242209e+01 6.776187657828282340e+01
5.337065972222222143e+01 5.380689709595959869e+01 6.785961174242424931e+01
5.341946811868687206e+01 5.393098958333333570e+01 6.796602746212121815e+01
5.354273200757575779e+01 5.408250473484848442e+01 6.808755523989898961e+01
5.364354482323232531e+01 5.426207386363636687e+01 6.822340593434343248e+01
5.376763731060606233e+01 5.444629892676767469e+01 6.835681029040404155e+01
5.385779671717171624e+01 5.463604797979797922e+01 6.851231060606060908e+01
5.395261205808080973e+01 5.477110953282828376e+01 6.861454387626262985e+01
5.404320549242424221e+01 5.490731534090909349e+01 6.873544034090909349e+01
5.412677556818182012e+01 5.505149147727272663e+01 6.882406092171717660e+01
5.421259469696969546e+01 5.520849116161615910e+01 6.893260732323231821e+01
5.431687973484848442e+01 5.535112847222222143e+01 6.909655145202020776e+01
5.438525883838384090e+01 5.548042929292929415e+01 6.916019570707071296e+01
5.446890782828283051e+01 5.559943181818182012e+01 6.925126262626262985e+01
5.452114898989898961e+01 5.574321338383838054e+01 6.936553030303029743e+01
5.462444760101010388e+01 5.586529356060606233e+01 6.945320391414141170e+01
5.420916193181817988e+01 5.533589804292929415e+01 6.898662405303029743e+01
5.339263731060606233e+01 5.402379261363636687e+01 6.791299715909090651e+01
5.261103219696969546e+01 5.282173295454545325e+01 6.696314709595959869e+01
5.225737847222222143e+01 5.210965119949494806e+01 6.643209438131313505e+01
5.212835385101010388e+01 5.196105587121212466e+01 6.634663036616161946e+01
5.215167297979797922e+01 5.197537878787878896e+01 6.635890151515151558e+01
5.220213857323232531e+01 5.201290246212121104e+01 6.640778882575757791e+01
5.227616003787878896e+01 5.203405145202020066e+01 6.643793402777777146e+01
5.227868529040404155e+01 5.206893150252525260e+01 6.649333175505050519e+01
5.236631944444444287e+01 5.219949494949494806e+01 6.659943181818181301e+01
5.236781881313131493e+01 5.219057765151514872e+01 6.658278093434343248e+01
5.225138099747474740e+01 5.201811079545454675e+01 6.644472064393939092e+01
5.210053661616161946e+01 5.185479797979797922e+01 6.630871212121212466e+01
5.212503945707070585e+01 5.181032986111111427e+01 6.625430082070707272e+01
5.213861268939393767e+01 5.187772253787878896e+01 6.632705965909090651e+01
5.230093907828283051e+01 5.206293402777777857e+01 6.650153882575757791e+01
5.247309027777777857e+01 5.225497159090909349e+01 6.666453598484848442e+01
5.257994002525252597e+01 5.249124053030303116e+01 6.685724431818181301e+01
5.269937657828283051e+01 5.270868844696969546e+01 6.703649779040404155e+01
5.283321496212121104e+01 5.287314551767676818e+01 6.717822758838383379e+01
5.295553188131312794e+01 5.307311395202020066e+01 6.732895359848484418e+01
5.301156092171716949e+01 5.322115688131312794e+01 6.745237531565656752e+01
5.306474905303030454e+01 5.331032986111111427e+01 6.753791824494949481e+01
5.317250631313131493e+01 5.345107323232323182e+01 6.763446969696970257e+01
5.323899147727272663e+01 5.354928188131312794e+01 6.771010890151515582e+01
5.332579703282828376e+01 5.366875789141413833e+01 6.781411773989898961e+01
5.343481691919191690e+01 5.381833964646464352e+01 6.794318181818181301e+01
5.353562973484848442e+01 5.395734690656565391e+01 6.806009311868686495e+01
5.360933554292929415e+01 5.411785827020202078e+01 6.821223958333332860e+01
5.372076231060606233e+01 5.427410827020202078e+01 6.833313604797979224e+01
5.384150094696969546e+01 5.444045928030303116e+01 6.847628630050505194e+01
5.393836805555555713e+01 5.460172032828283051e+01 6.856983901515151558e+01
5.403657670454545325e+01 5.476369160353535648e+01 6.871523832070707272e+01
5.415751262626262275e+01 5.492708333333333570e+01 6.887436868686869218e+01
5.421318655303030454e+01 5.510759943181817988e+01 6.895419034090909349e+01
5.432579703282828376e+01 5.527418718434343248e+01 6.910168087121212466e+01
5.442258522727272663e+01 5.541848169191919027e+01 6.920430871212121815e+01
5.452884311868687206e+01 5.554951862373737725e+01 6.931277619949494806e+01
5.458499053030303116e+01 5.570667613636363313e+01 6.943237058080808310e+01
5.464954229797979934e+01 5.584146148989898961e+01 6.953685290404040131e+01
5.472052556818182012e+01 5.594369476010101039e+01 6.961841066919191690e+01
5.438450915404040131e+01 5.552150410353535648e+01 6.921894728535353636e+01
5.361994949494949481e+01 5.426499368686868507e+01 6.823500631313130782e+01
5.285744160353535648e+01 5.303989109848485128e+01 6.725548453282827666e+01
5.243347537878787534e+01 5.232788825757575779e+01 6.672608901515151558e+01
5.231743213383838054e+01 5.208968592171716949e+01 6.654659880050505194e+01
5.234280303030303116e+01 5.210921717171716949e+01 6.659359217171717660e+01
5.246744791666666430e+01 5.221650094696969546e+01 6.669850852272726627e+01
5.243888099747474740e+01 5.224743529040404155e+01 6.673686079545454675e+01
5.254742739898989612e+01 5.236545138888888573e+01 6.681652462121212466e+01
5.263190498737373701e+01 5.251416508838384090e+01 6.696287089646465063e+01
5.262934027777777857e+01 5.249345012626262275e+01 6.692116477272726627e+01
5.250508996212121104e+01 5.230591066919191690e+01 6.680259627525252597e+01
