5.251882102272727337e+01 5.232185132575757791e+01 6.891812657828282340e+01
5.248709753787878896e+01 5.232911142676767469e+01 6.888387784090909349e+01
5.271827651515151558e+01 5.250189393939393767e+01 6.912610479797979224e+01
5.280437184343434609e+01 5.260424558080808310e+01 6.924045138888888573e+01
5.280058396464646364e+01 5.260377209595959869e+01 6.928622159090909349e+01
5.273962279040404155e+01 5.267870107323232531e+01 6.920963541666667140e+01
5.281731376262626299e+01 5.275149936868687206e+01 6.924013573232323893e+01
5.294736426767676818e+01 5.299360795454545325e+01 6.932978219696970257e+01
5.309860321969696884e+01 5.317988478535353636e+01 6.952221433080808310e+01
5.314792455808080973e+01 5.341007733585858830e+01 6.967680713383838054e+01
5.321867108585858830e+01 5.362428977272727337e+01 6.978669507575757791e+01
5.336351799242424221e+01 5.383242582070707272e+01 6.989192708333332860e+01
5.344961332070707272e+01 5.400753630050505194e+01 6.999538352272726627e+01
5.355180713383838054e+01 5.421421243686868507e+01 7.011651672979797922e+01
5.366098484848485128e+01 5.442708333333333570e+01 7.023737373737374412e+01
5.377130681818182012e+01 5.463778409090909349e+01 7.033585858585858830e+01
5.385882260101010388e+01 5.481620896464646364e+01 7.047672032828282340e+01
5.397585227272727337e+01 5.503093434343434609e+01 7.058017676767676107e+01
5.405914614898989612e+01 5.523528251262626299e+01 7.071492266414141170e+01
5.419681186868687206e+01 5.543576388888888573e+01 7.080618686868686495e+01
5.427047821969696884e+01 5.563632417929292728e+01 7.090731534090909349e+01
5.436395202020202078e+01 5.583775252525252597e+01 7.101657196969696884e+01
5.444554924242424221e+01 5.602398989898989612e+01 7.114567550505050519e+01
5.446294981060606233e+01 5.610783617424242209e+01 7.118185763888888573e+01
5.400615530303030454e+01 5.546291035353535648e+01 7.057070707070707272e+01
5.331005366161615910e+01 5.429569128787878896e+01 6.972466856060606233e+01
5.290273832070707272e+01 5.341410195707070585e+01 6.916899463383838054e+01
5.271437026515151558e+01 5.303397253787878896e+01 6.901992582070707272e+01
5.264496527777777857e+01 5.274329229797979934e+01 6.887618371212121815e+01
5.246263415404040131e+01 5.243217329545454675e+01 6.868027935606060908e+01
5.230097853535353636e+01 5.213068181818182012e+01 6.846291035353534937e+01
5.195762310606060908e+01 5.174629103535353636e+01 6.820415088383838054e+01
5.204549400252525260e+01 5.184726167929292728e+01 6.828870738636364024e+01
5.211742424242424221e+01 5.191366792929292728e+01 6.836442550505050519e+01
5.211470170454545325e+01 5.193209438131312794e+01 6.836312342171717660e+01
5.209367108585858830e+01 5.194799558080808310e+01 6.834998421717172334e+01
5.212555239898989612e+01 5.201444128787878896e+01 6.840948547979797922e+01
5.220817550505050519e+01 5.214315025252525260e+01 6.850978535353534937e+01
5.231699810606060908e+01 5.232615214646464352e+01 6.862018623737374412e+01
5.233755523989898961e+01 5.249459438131312794e+01 6.870450599747475451e+01
5.252071496212121104e+01 5.271152935606060908e+01 6.886967329545454675e+01
5.258080808080808310e+01 5.291114267676767469e+01 6.898989898989898961e+01
5.269148516414141170e+01 5.308510890151514872e+01 6.905843592171717660e+01
5.276574337121212466e+01 5.326274463383838054e+01 6.915905145202020776e+01
5.285684974747474740e+01 5.342219065656565391e+01 6.928740530303029743e+01
5.294764046717171624e+01 5.361257102272727337e+01 6.939382102272726627e+01
5.304912405303030454e+01 5.381506470959595845e+01 6.951361268939393767e+01
5.312156723484848442e+01 5.403065814393939092e+01 6.964082228535353636e+01
5.323461174242424221e+01 5.421961805555555713e+01 6.976128472222222854e+01
5.332583648989898961e+01 5.443205492424242209e+01 6.987571022727273373e+01
5.342901672979797922e+01 5.462519728535353636e+01 6.998741319444444287e+01
5.352505523989898961e+01 5.486659564393939092e+01 7.012480271464646364e+01
5.363036616161615910e+01 5.507638888888888573e+01 7.025946969696970257e+01
5.372360321969696884e+01 5.527079387626262275e+01 7.037527619949494806e+01
5.344132733585858830e+01 5.489176925505050519e+01 7.003665561868686495e+01
5.283238636363636687e+01 5.392266414141413833e+01 6.928724747474747403e+01
5.238857323232323182e+01 5.307575757575757791e+01 6.878093434343433898e+01
5.223587436868687206e+01 5.269499684343434609e+01 6.861197916666667140e+01
5.224854008838384090e+01 5.254936079545454675e+01 6.857287720959595845e+01
5.209544665404040131e+01 5.232429766414141170e+01 6.850390625000000000e+01
5.202146464646464352e+01 5.212247474747474740e+01 6.842708333333332860e+01
5.201014046717171624e+01 5.212393465909090651e+01 6.844322127525252597e+01
5.213245738636363313e+01 5.224672506313131493e+01 6.857437657828282340e+01
5.215459280303030454e+01 5.235503472222222143e+01 6.863486426767676107e+01
5.220158617424242209e+01 5.234552556818182012e+01 6.863987531565656752e+01
5.217246685606060908e+01 5.234229008838384090e+01 6.863553503787878185e+01
5.224277935606060908e+01 5.240834122474747403e+01 6.868690814393939092e+01
5.230650252525252597e+01 5.257686237373737725e+01 6.880681818181818699e+01
5.242613636363636687e+01 5.275694444444444287e+01 6.894270833333332860e+01
5.253862847222222143e+01 5.293556660353535648e+01 6.909797190656566102e+01
5.259599905303030454e+01 5.318091066919191690e+01 6.918091066919191690e+01
5.268087121212121104e+01 5.334280303030303116e+01 6.929734848484848442e+01
5.279352114898989612e+01 5.349412089646464352e+01 6.937338226010101039e+01
5.283357007575757791e+01 5.364244002525252597e+01 6.943994633838383379e+01
5.296504103535353636e+01 5.387444760101010388e+01 6.959067234848484418e+01
5.306782670454545325e+01 5.405504261363636687e+01 6.972092013888888573e+01
5.318020044191919027e+01 5.425027619949494806e+01 6.986706912878787534e+01
5.320296717171716949e+01 5.444302398989898961e+01 6.994902146464646364e+01
5.336742424242424221e+01 5.464583333333333570e+01 7.007875631313130782e+01
5.349550189393939092e+01 5.488660037878787534e+01 7.022545770202020776e+01
5.362038352272727337e+01 5.511706912878787534e+01 7.039358428030303116e+01
5.369038036616161946e+01 5.534805082070707272e+01 7.050035511363635976e+01
5.349601483585858830e+01 5.504036458333333570e+01 7.023559816919191690e+01
5.290995896464646364e+01 5.416927083333333570e+01 6.954726957070707272e+01
5.251420454545454675e+01 5.344002525252525260e+01 6.908333333333332860e+01
5.239433396464646364e+01 5.310503472222222143e+01 6.897529987373737015e+01
5.236876578282828376e+01 5.299913194444444287e+01 6.896614583333332860e+01
5.231226325757575779e+01 5.283562184343434609e+01 6.888959911616161946e+01
5.218343592171716949e+01 5.261935763888888573e+01 6.879565183080808310e+01
5.218943339646464352e+01 5.258858112373737725e+01 6.877734375000000000e+01
5.224029356060606233e+01 5.265222537878787534e+01 6.881478851010101039e+01
5.227241161616161946e+01 5.270044191919191690e+01 6.888589015151515582e+01
5.225678661616161946e+01 5.268970959595959869e+01 6.883822601010101039e+01
5.224183238636363313e+01 5.265834122474747403e+01 6.881048768939393767e+01
5.229162720959595845e+01 5.272249842171716949e+01 6.883834438131313505e+01
5.235696811868687206e+01 5.289895044191919027e+01 6.897234059343433898e+01
5.247115688131312794e+01 5.305101799242424221e+01 6.907848011363635976e+01
5.253152619949494806e+01 5.321002998737373701e+01 6.915100220959595845e+01
5.266528566919191690e+01 5.337219854797979934e+01 6.926377051767676107e+01
5.269219539141413833e+01 5.351542771464646364e+01 6.935475852272726627e+01
5.277671243686868507e+01 5.367522885101010388e+01 6.942586016414141170e+01
5.283668718434343248e+01 5.380985637626262275e+01 6.948662405303029743e+01
5.290340909090909349e+01 5.394081439393939092e+01 6.958617424242424931e+01
5.298386205808080973e+01 5.409765625000000000e+01 6.966536458333332860e+01
5.306443339646464352e+01 5.425840435606060908e+01 6.975193339646465063e+01
5.312389520202020066e+01 5.439804292929292728e+01 6.984974747474747403e+01
5.323046875000000000e+01 5.457958491161615910e+01 6.994369476010101039e+01
5.334730113636363313e+01 5.473145517676767469e+01 7.006999684343433898e+01
5.333984375000000000e+01 5.476377051767676818e+01 7.003681344696970257e+01
5.283400410353535648e+01 5.407800662878787534e+01 6.944827178030303116e+01
5.233771306818182012e+01 5.319298453282828376e+01 6.882950599747475451e+01
5.206684027777777857e+01 5.262492108585858830e+01 6.853243371212121815e+01
5.196894728535353636e+01 5.232374526515151558e+01 6.845095486111111427e+01
5.185175978535353636e+01 5.214642518939393767e+01 6.834339488636364024e+01
5.173378314393939092e+01 5.185278566919191690e+01 6.819858743686869218e+01
5.162314551767676818e+01 5.162645991161615910e+01 6.804549400252524549e+01
5.165392203282828376e+01 5.160830965909090651e+01 6.803444602272726627e+01
5.165542140151514872e+01 5.162259311868687206e+01 6.807193023989898961e+01
5.167893781565656752e+01 5.162164614898989612e+01 6.805551609848484418e+01
5.163648200757575779e+01 5.155567392676767469e+01 6.799980271464646364e+01
5.165131786616161946e+01 5.154509943181817988e+01 6.799254261363635976e+01
5.163529829545454675e+01 5.158684501262626299e+01 6.798220486111111427e+01
5.174786931818182012e+01 5.168205492424242209e+01 6.807315340909090651e+01
5.181356534090909349e+01 5.182855902777777857e+01 6.820655776515151558e+01
5.185787563131312794e+01 5.202375315656565391e+01 6.826475694444444287e+01
5.192941130050505194e+01 5.216047190656565391e+01 6.835854640151515582e+01
5.203914141414141170e+01 5.229782196969696884e+01 6.847095959595959869e+01
5.212286931818182012e+01 5.243852588383838054e+01 6.854474431818181301e+01
5.219077493686868507e+01 5.255078125000000000e+01 6.864058554292928704e+01
5.226834753787878896e+01 5.272257733585858830e+01 6.875082859848484418e+01
5.238592960858586167e+01 5.286588541666666430e+01 6.882390309343433898e+01
5.241658775252525260e+01 5.303085542929292728e+01 6.890459280303029743e+01
5.249289772727272663e+01 5.315956439393939092e+01 6.898800505050505194e+01
5.254253472222222143e+01 5.328511679292929415e+01 6.905105744949494806e+01
5.263987531565656752e+01 5.341512784090909349e+01 6.913703440656566102e+01
5.270269097222222143e+01 5.358842329545454675e+01 6.923599273989898961e+01
5.278649779040404155e+01 5.370584753787878896e+01 6.932327178030303116e+01
5.252280618686868507e+01 5.338154987373737725e+01 6.902170138888888573e+01
5.199968434343434609e+01 5.241398358585858830e+01 6.830729166666667140e+01
5.152189867424242209e+01 5.155867266414141170e+01 6.777347695707071296e+01
5.134584122474747403e+01 5.111699021464646364e+01 6.753997001262625588e+01
5.119862689393939092e+01 5.082662563131312794e+01 6.739086174242424931e+01
5.101507260101010388e+01 5.052375315656565391e+01 6.717353219696970257e+01
5.088285195707070585e+01 5.021145044191919027e+01 6.696255523989898961e+01
5.083333333333333570e+01 5.006549873737373701e+01 6.686947601010101039e+01
5.087594696969696884e+01 5.013604797979797922e+01 6.695738636363635976e+01
5.097506313131312794e+01 5.024273989898989612e+01 6.703551136363635976e+01
5.096385732323232531e+01 5.027651515151514872e+01 6.705224116161616621e+01
5.100441919191919027e+01 5.029687500000000000e+01 6.707196969696970257e+01
5.100524779040404155e+01 5.035562657828283051e+01 6.708984375000000000e+01
5.111233428030303116e+01 5.047218276515151558e+01 6.720040246212121815e+01
5.120549242424242209e+01 5.067455808080808310e+01 6.734375000000000000e+01
5.129474431818182012e+01 5.086371527777777857e+01 6.748319128787878185e+01
5.139551767676767469e+01 5.102572601010101039e+01 6.760921717171717660e+01
5.154782196969696884e+01 5.124542297979797922e+01 6.774889520202020776e+01
5.153247316919191690e+01 5.139563604797979934e+01 6.782919034090909349e+01
5.172099905303030454e+01 5.157043087121212466e+01 6.794053819444444287e+01
5.178322285353535648e+01 5.175449810606060908e+01 6.806794507575757791e+01
5.191291824494949481e+01 5.198567708333333570e+01 6.819243213383838054e+01
5.201175820707070585e+01 5.217353219696969546e+01 6.833798926767676107e+01
5.208570075757575779e+01 5.235921717171716949e+01 6.845975378787878185e+01
5.219819286616161946e+01 5.258187342171716949e+01 6.857840119949494806e+01
5.233171559343434609e+01 5.280425347222222143e+01 6.871650094696970257e+01
5.243106849747474740e+01 5.302197758838384090e+01 6.883100536616161946e+01
5.256072443181817988e+01 5.324522569444444287e+01 6.897486584595959869e+01
5.260298295454545325e+01 5.341122159090909349e+01 6.908814709595959869e+01
5.275643150252525260e+01 5.362843276515151558e+01 6.922439236111111427e+01
5.283025568181817988e+01 5.379427083333333570e+01 6.930468750000000000e+01
5.254920296717171624e+01 5.343225220959595845e+01 6.897044665404040131e+01
5.195048137626262275e+01 5.248615056818182012e+01 6.826077178030303116e+01
5.157181186868687206e+01 5.172964015151514872e+01 6.778203914141414543e+01
5.138817866161615910e+01 5.136781881313131493e+01 6.763218118686869218e+01
5.136773989898989612e+01 5.117708333333333570e+01 6.756123737373737015e+01
5.127840909090909349e+01 5.095344065656565391e+01 6.745312500000000000e+01
5.113510101010101039e+01 5.072017045454545325e+01 6.728409090909090651e+01
5.111351799242424221e+01 5.069385258838384090e+01 6.726708491161616621e+01
5.128085542929292728e+01 5.086055871212121104e+01 6.739780618686869218e+01
5.132567866161615910e+01 5.099581755050505194e+01 6.752217487373737015e+01
5.137807765151514872e+01 5.103069760101010388e+01 6.755232007575757791e+01
5.139532039141413833e+01 5.108329387626262275e+01 6.758187342171717660e+01
5.146547506313131493e+01 5.116212910353535648e+01 6.764224273989898961e+01
5.156920770202020066e+01 5.133909406565656752e+01 6.776491477272726627e+01
5.165360637626262275e+01 5.156585385101010388e+01 6.787614425505050519e+01
5.172640467171716949e+01 5.175102588383838054e+01 6.802280618686869218e+01
5.189973958333333570e+01 5.196523832070707272e+01 6.815510574494949481e+01
5.198476957070707272e+01 5.214938446969696884e+01 6.829221906565656752e+01
5.204628314393939092e+01 5.235199652777777857e+01 6.833431976010101039e+01
5.212223800505050519e+01 5.254363952020202078e+01 6.846062184343433898e+01
5.224854008838384090e+01 5.272107796717171624e+01 6.858581912878787534e+01
5.232145675505050519e+01 5.294345801767676818e+01 6.873354640151515582e+01
5.246350220959595845e+01 5.314752998737373701e+01 6.886959438131313505e+01
5.257299558080808310e+01 5.332678345959595845e+01 6.898966224747475451e+01
5.267538667929292728e+01 5.356459122474747403e+01 6.911209753787878185e+01
5.277616003787878896e+01 5.375816761363636687e+01 6.925769412878787534e+01
5.290853851010101039e+01 5.393016098484848442e+01 6.938928345959595845e+01
5.295099431818182012e+01 5.412602588383838054e+01 6.947356376262625588e+01
5.303586647727272663e+01 5.430969854797979934e+01 6.956017203282827666e+01
5.315135732323232531e+01 5.451909722222222143e+01 6.972711489898989612e+01
5.326546717171716949e+01 5.469460227272727337e+01 6.984832702020202078e+01
5.328610321969696884e+01 5.481372316919191690e+01 6.988458806818181301e+01
5.289599116161615910e+01 5.429292929292929415e+01 6.938241792929292728e+01
5.231901041666666430e+01 5.331901041666666430e+01 6.867396622474747403e+01
5.197080176767676818e+01 5.257765151515151558e+01 6.826530934343433898e+01
5.181944444444444287e+01 5.224968434343434609e+01 6.813904671717172334e+01
5.180614741161615910e+01 5.209734059343434609e+01 6.806577493686869218e+01
5.167305871212121104e+01 5.183499053030303116e+01 6.794783775252524549e+01
5.158364898989898961e+01 5.159248737373737725e+01 6.778093434343433898e+01
5.159615688131312794e+01 5.154470486111111427e+01 6.780512152777777146e+01
5.171440972222222143e+01 5.166374684343434609e+01 6.791974431818181301e+01
5.173567708333333570e+01 5.176503314393939092e+01 6.797636521464646364e+01
5.175749684343434609e+01 5.178511679292929415e+01 6.796946022727273373e+01
5.176554608585858830e+01 5.179790088383838054e+01 6.797892992424242209e+01
5.181025094696969546e+01 5.186343907828283051e+01 6.804573074494949481e+01
5.186044034090909349e+01 5.201795296717171624e+01 6.812385574494949481e+01
5.197529987373737725e+01 5.220825441919191690e+01 6.828006628787878185e+01
5.210014204545454675e+01 5.244783775252525260e+01 6.840727588383838054e+01
5.220568970959595845e+01 5.261746369949494806e+01 6.853223642676768179e+01
5.223563762626262275e+01 5.283128156565656752e+01 6.861442550505050519e+01
5.239315025252525260e+01 5.298295454545454675e+01 6.872159090909090651e+01
5.242230902777777857e+01 5.314737215909090651e+01 6.884560448232323893e+01
5.255654198232323182e+01 5.329628314393939092e+01 6.895774147727273373e+01
5.259122474747474740e+01 5.347569444444444287e+01 6.907149621212121815e+01
5.272818023989898961e+01 5.367499210858586167e+01 6.921129261363635976e+01
5.284146148989898961e+01 5.387176452020202078e+01 6.932615214646465063e+01
5.290222537878787534e+01 5.406242108585858830e+01 6.943568497474747403e+01
5.300406407828283051e+01 5.424743529040404155e+01 6.955851483585858830e+01
5.315889362373737725e+01 5.444645675505050519e+01 6.967767518939393767e+01
5.325402462121212466e+01 5.463802083333333570e+01 6.980831755050505194e+01
5.339220328282828376e+01 5.484217171717171624e+01 6.995312500000000000e+01
5.345442708333333570e+01 5.502418718434343248e+01 7.007421875000000000e+01
5.345387468434343248e+01 5.504367897727272663e+01 7.005993529040404155e+01
5.294369476010101039e+01 5.429107481060606233e+01 6.946310763888888573e+01
5.237192234848485128e+01 5.321393623737373701e+01 6.873571654040404155e+01
5.204087752525252597e+01 5.249715909090909349e+01 6.837026515151515582e+01
5.191887626262626299e+01 5.217455808080808310e+01 6.826625631313130782e+01
5.189378156565656752e+01 5.201830808080808310e+01 6.820707070707071296e+01
5.173362531565656752e+01 5.176724273989898961e+01 6.805449021464646364e+01
5.168402777777777857e+01 5.158238636363636687e+01 6.797948232323231821e+01
5.178176294191919027e+01 5.166670612373737725e+01 6.807737531565656752e+01
5.183282039141413833e+01 5.176968907828283051e+01 6.816157670454545325e+01
5.185341698232323182e+01 5.178839172979797922e+01 6.816055082070707272e+01
5.180527935606060908e+01 5.175272253787878896e+01 6.813971748737374412e+01
5.183771306818182012e+01 5.175595801767676818e+01 6.812480271464646364e+01
5.182157512626262275e+01 5.183025568181817988e+01 6.817889835858585457e+01
5.199459438131312794e+01 5.198985953282828376e+01 6.832713857323231821e+01
5.209832702020202078e+01 5.221070075757575779e+01 6.845959595959595845e+01
5.221673768939393767e+01 5.239950284090909349e+01 6.862519728535353636e+01
5.227560763888888573e+01 5.259347380050505194e+01 6.874609375000000000e+01
5.234765625000000000e+01 5.274932922979797922e+01 6.880220170454545325e+01
5.242092803030303116e+01 5.290041035353535648e+01 6.891319444444444287e+01
5.256865530303030454e+01 5.305539772727272663e+01 6.903882575757575069e+01
5.259706439393939092e+01 5.321417297979797922e+01 6.911868686868686495e+01
5.274688289141413833e+01 5.337756470959595845e+01 6.923157354797979224e+01
5.277584438131312794e+01 5.350343276515151558e+01 6.933282039141414543e+01
5.288091856060606233e+01 5.371867108585858830e+01 6.944783775252524549e+01
5.295537405303030454e+01 5.390660511363636687e+01 6.956301294191919737e+01
5.310590277777777857e+01 5.413731060606060908e+01 6.970344065656566102e+01
5.314614898989898961e+01 5.421006944444444287e+01 6.975694444444444287e+01
5.279861111111111427e+01 5.368907828282828376e+01 6.934864267676768179e+01
5.210748106060606233e+01 5.253835227272727337e+01 6.853740530303029743e+01
5.169424715909090651e+01 5.158218907828283051e+01 6.801211332070707272e+01
5.151463857323232531e+01 5.117625473484848442e+01 6.779541508838383379e+01
5.149120107323232531e+01 5.099956597222222143e+01 6.769385258838383379e+01
5.133309659090909349e+01 5.077690972222222143e+01 6.756005366161616621e+01
5.123832070707070585e+01 5.056297348484848442e+01 6.742250631313130782e+01
5.128811553030303116e+01 5.062271148989898961e+01 6.747908775252524549e+01
5.144377367424242209e+01 5.081751104797979934e+01 6.766536458333332860e+01
5.148267834595959869e+01 5.086793718434343248e+01 6.770284880050505194e+01
5.148496685606060908e+01 5.087148832070707272e+01 6.769045928030303116e+01
5.146586963383838054e+01 5.085965119949494806e+01 6.769535195707071296e+01
5.152398989898989612e+01 5.093750000000000000e+01 6.775726010101010388e+01
5.158065025252525260e+01 5.109264520202020066e+01 6.787373737373737015e+01
5.175256470959595845e+01 5.130275410353535648e+01 6.800051294191919737e+01
5.179865056818182012e+01 5.148110006313131493e+01 6.816749526515151558e+01
5.195434816919191690e+01 5.169487847222222143e+01 6.833124210858585457e+01
5.203728693181817988e+01 5.188529829545454675e+01 6.846137152777777146e+01
5.213198390151514872e+01 5.203302556818182012e+01 6.858005839646465063e+01
5.216923137626262275e+01 5.216733743686868507e+01 6.867428188131313505e+01
5.232224589646464352e+01 5.237669665404040131e+01 6.881025094696970257e+01
5.233866003787878896e+01 5.253168402777777857e+01 6.890368529040404155e+01
5.248121843434343248e+01 5.271717171717171624e+01 6.902493686868686495e+01
5.258877840909090651e+01 5.291927083333333570e+01 6.914985795454545325e+01
5.272439236111111427e+01 5.312085700757575779e+01 6.930961963383838054e+01
5.283187342171716949e+01 5.336264993686868507e+01 6.945245422979797922e+01
5.288229955808080973e+01 5.353428819444444287e+01 6.953428819444444287e+01
5.264638573232323182e+01 5.323997790404040131e+01 6.929269255050505194e+01
5.198484848484848442e+01 5.209232954545454675e+01 6.842140151515151558e+01
5.148496685606060908e+01 5.102773832070707272e+01 6.774901357323231821e+01
5.120486111111111427e+01 5.054071969696969546e+01 6.741429924242424931e+01
5.116358901515151558e+01 5.037113320707070585e+01 6.732346906565656752e+01
5.105180713383838054e+01 5.014539930555555713e+01 6.714871369949494806e+01
5.088533775252525260e+01 4.991674558080808310e+01 6.700797032828282340e+01
5.092005997474747403e+01 4.988375946969696884e+01 6.698113952020202078e+01
5.110424558080808310e+01 5.010929608585858830e+01 6.717195391414141170e+01
5.119764046717171624e+01 5.031459122474747403e+01 6.733479324494949481e+01
5.121381786616161946e+01 5.041347064393939092e+01 6.739263731060606233e+01
5.123918876262626299e+01 5.046740845959595845e+01 6.743821022727273373e+01
5.131297348484848442e+01 5.056407828282828376e+01 6.752114898989898961e+01
5.144941603535353636e+01 5.076144255050505194e+01 6.768963068181818699e+01
5.156676136363636687e+01 5.100694444444444287e+01 6.789236111111111427e+01
5.169866635101010388e+01 5.124301609848485128e+01 6.804431029040404155e+01
5.181470959595959869e+01 5.149147727272727337e+01 6.821843434343433898e+01
5.196717171717171624e+01 5.174416035353535648e+01 6.839772727272726627e+01
5.204715119949494806e+01 5.196302872474747403e+01 6.853973327020202078e+01
5.217278251262626299e+01 5.217751736111111427e+01 6.866473327020202078e+01
5.229427083333333570e+01 5.239101957070707272e+01 6.884919507575757791e+01
5.244685132575757791e+01 5.264555713383838054e+01 6.900382733585858830e+01
5.253006628787878896e+01 5.291406250000000000e+01 6.918458017676768179e+01
5.267242739898989612e+01 5.317842487373737725e+01 6.932915088383838054e+01
5.279651988636363313e+01 5.345734690656565391e+01 6.948512468434343248e+01
5.292881944444444287e+01 5.374905303030303116e+01 6.962847222222222854e+01
5.304083806818182012e+01 5.401258680555555713e+01 6.980409564393939092e+01
5.317246685606060908e+01 5.426463857323232531e+01 6.994835069444444287e+01
5.324396306818182012e+01 5.448764993686868507e+01 7.003910195707071296e+01
5.342696496212121104e+01 5.475366950757575779e+01 7.020395359848484418e+01
5.351365214646464352e+01 5.504884785353535648e+01 7.035045770202020776e+01
5.367096748737373701e+01 5.526771622474747403e+01 7.046279198232323893e+01
5.341287878787878896e+01 5.495722853535353636e+01 7.019554924242424931e+01
5.281364425505050519e+01 5.401392834595959869e+01 6.943438289141414543e+01
5.242870107323232531e+01 5.334410511363636687e+01 6.900130208333332860e+01
5.233447758838384090e+01 5.305164930555555713e+01 6.886146622474747403e+01
5.227967171717171624e+01 5.293876262626262275e+01 6.880934343434343248e+01
5.221504103535353636e+01 5.274266098484848442e+01 6.874297664141414543e+01
5.210337752525252597e+01 5.256029040404040131e+01 6.862594696969696884e+01
5.211221590909090651e+01 5.249968434343434609e+01 6.861584595959595845e+01
5.216003787878787534e+01 5.266019570707070585e+01 6.875962752525252597e+01
5.231467013888888573e+01 5.286138731060606233e+01 6.885381155303029743e+01
5.233364898989898961e+01 5.296291035353535648e+01 6.888541666666667140e+01
5.240625000000000000e+01 5.303677398989898961e+01 6.893970959595959869e+01
5.247940340909090651e+01 5.318363320707070585e+01 6.900560290404040131e+01
5.256849747474747403e+01 5.340041035353535648e+01 6.915025252525252597e+01
5.266788983585858830e+01 5.363174715909090651e+01 6.929478377525252597e+01
5.279644097222222143e+01 5.385310132575757791e+01 6.942522885101010388e+01
5.287732796717171624e+01 5.408897569444444287e+01 6.954573074494949481e+01
5.302367424242424221e+01 5.433175505050505194e+01 6.968292297979797922e+01
5.310290404040404155e+01 5.450284090909090651e+01 6.978630050505050519e+01
5.319144570707070585e+01 5.470154671717171624e+01 6.986789772727273373e+01
5.327383207070707272e+01 5.491903409090909349e+01 7.001499368686869218e+01
5.345999053030303116e+01 5.520004734848485128e+01 7.018379103535353636e+01
5.359797190656565391e+01 5.543572443181817988e+01 7.032776988636364024e+01
5.375138099747474740e+01 5.565510574494949481e+01 7.047013099747475451e+01
5.376069286616161946e+01 5.587653882575757791e+01 7.053925978535353636e+01
5.388845486111111427e+01 5.611414930555555713e+01 7.069622001262625588e+01
5.401021938131312794e+01 5.634134311868687206e+01 7.082698074494949481e+01
5.416437815656565391e+01 5.655468750000000000e+01 7.095383522727273373e+01
5.426755839646464352e+01 5.678633996212121104e+01 7.108005839646465063e+01
5.435479797979797922e+01 5.699747474747474740e+01 7.118576388888888573e+01
5.444598327020202078e+01 5.719787720959595845e+01 7.132098327020202078e+01
5.456747159090909349e+01 5.745383522727272663e+01 7.146330492424242209e+01
5.466335227272727337e+01 5.760195707070707272e+01 7.154908459595959869e+01
5.430468750000000000e+01 5.712160669191919027e+01 7.111482007575757791e+01
5.374838226010101039e+01 5.628373579545454675e+01 7.046208175505050519e+01
5.349755366161615910e+01 5.572735164141413833e+01 7.014749053030303116e+01
5.338226010101010388e+01 5.550883838383838054e+01 7.005397727272726627e+01
5.338695549242424221e+01 5.535696811868687206e+01 7.004920296717172334e+01
5.324084595959595845e+01 5.515451388888888573e+01 6.993339646464646364e+01
5.313679766414141170e+01 5.493682922979797922e+01 6.980819917929292728e+01
5.312519728535353636e+01 5.492586016414141170e+01 6.984284248737374412e+01
5.323271780303030454e+01 5.496393623737373701e+01 6.989938446969696884e+01
5.323717645202020066e+01 5.499538352272727337e+01 6.993667140151515582e+01
5.322597064393939092e+01 5.496176609848485128e+01 6.992909564393939092e+01
5.320296717171716949e+01 5.494081439393939092e+01 6.991824494949494806e+01
5.325268308080808310e+01 5.495691287878787534e+01 6.994728535353534937e+01
5.328081597222222143e+01 5.502671243686868507e+01 7.000445864898989612e+01
5.335905934343434609e+01 5.517219065656565391e+01 7.009201388888888573e+01
5.345253314393939092e+01 5.530906723484848442e+01 7.020663667929292728e+01
5.354549400252525260e+01 5.543059501262626299e+01 7.028334122474747403e+01
5.358767361111111427e+01 5.556826073232323182e+01 7.036592487373737015e+01
5.365924873737373701e+01 5.569807449494949481e+01 7.041856060606060908e+01
5.368012152777777857e+01 5.578744476010101039e+01 7.048062657828282340e+01
5.376889993686868507e+01 5.592909564393939092e+01 7.057524463383838054e+01
5.385243055555555713e+01 5.605303030303030454e+01 7.063952020202020776e+01
5.390471117424242209e+01 5.618043718434343248e+01 7.072068339646465063e+01
5.398200757575757791e+01 5.634232954545454675e+01 7.082433712121212466e+01
5.404758522727272663e+01 5.646504103535353636e+01 7.090806502525252597e+01
5.416493055555555713e+01 5.662136994949494806e+01 7.101467803030303116e+01
5.421646148989898961e+01 5.677690972222222143e+01 7.111497790404040131e+01
5.429450757575757791e+01 5.694823232323232531e+01 7.120170454545454675e+01
5.430559501262626299e+01 5.697036773989898961e+01 7.119180082070707272e+01
5.389989741161615910e+01 5.636107165404040131e+01 7.070671559343433898e+01
5.334564393939393767e+01 5.537405303030303116e+01 7.005429292929292728e+01
5.296346275252525260e+01 5.468789457070707272e+01 6.968489583333332860e+01
5.284027777777777857e+01 5.429734848484848442e+01 6.952825126262625588e+01
5.270233585858586167e+01 5.405334595959595845e+01 6.941414141414141170e+01
5.255610795454545325e+01 5.373208648989898961e+01 6.926854482323231821e+01
5.245908301767676818e+01 5.344219539141413833e+01 6.915037089646465063e+01
5.248958333333333570e+01 5.342660984848485128e+01 6.915214646464646364e+01
5.252470012626262275e+01 5.345446654040404155e+01 6.918126578282827666e+01
5.251357323232323182e+01 5.341998106060606233e+01 6.916208964646465063e+01
5.243714488636363313e+01 5.329194286616161946e+01 6.909434185606060908e+01
5.243607954545454675e+01 5.322979797979797922e+01 6.906865530303029743e+01
5.237267203282828376e+01 5.322952178030303116e+01 6.906380208333332860e+01
5.247115688131312794e+01 5.332090435606060908e+01 6.912835385101010388e+01
5.259540719696969546e+01 5.347593118686868507e+01 6.925102588383838054e+01
5.264792455808080973e+01 5.360404829545454675e+01 6.932137784090909349e+01
5.269539141414141170e+01 5.372490530303030454e+01 6.940404040404040131e+01
5.279517834595959869e+01 5.383132102272727337e+01 6.948772885101010388e+01
5.280204387626262275e+01 5.394756155303030454e+01 6.953673453282827666e+01
5.290778882575757791e+01 5.405188604797979934e+01 6.960349589646465063e+01
5.292700441919191690e+01 5.414117739898989612e+01 6.967795138888888573e+01
5.302860637626262275e+01 5.429091698232323182e+01 6.977292455808080263e+01
5.309536773989898961e+01 5.445695233585858830e+01 6.986509627525252597e+01
5.317286142676767469e+01 5.457264046717171624e+01 6.994606218434343248e+01
5.322103851010101039e+01 5.479553345959595845e+01 7.004632260101010388e+01
5.334611742424242209e+01 5.495801767676767469e+01 7.015119949494949481e+01
5.328480113636363313e+01 5.490443497474747403e+01 7.007930871212121815e+01
5.274506786616161946e+01 5.404557291666666430e+01 6.942799084595959869e+01
5.214993686868687206e+01 5.291650883838384090e+01 6.873469065656566102e+01
5.179880839646464352e+01 5.217049400252525260e+01 6.833558238636364024e+01
5.165988005050505194e+01 5.180902777777777857e+01 6.816666666666667140e+01
5.157686237373737725e+01 5.149921085858586167e+01 6.797853535353534937e+01
5.135456123737373701e+01 5.117589962121212466e+01 6.777911931818181301e+01
5.128215751262626299e+01 5.093004261363636687e+01 6.758439867424242209e+01
5.132346906565656752e+01 5.097545770202020066e+01 6.766390467171717660e+01
5.147908775252525260e+01 5.114464962121212466e+01 6.780074179292928704e+01
5.145217803030303116e+01 5.119002525252525260e+01 6.781297348484848442e+01
5.147305082070707272e+01 5.117980587121212466e+01 6.781348642676768179e+01
5.145166508838384090e+01 5.120387468434343248e+01 6.782066761363635976e+01
5.154407354797979934e+01 5.129770359848485128e+01 6.786651672979797922e+01
5.159406565656565391e+01 5.146464646464646364e+01 6.800078914141414543e+01
5.174538352272727337e+01 5.168761837121212466e+01 6.813600852272726627e+01
5.187054135101010388e+01 5.188742897727272663e+01 6.830741003787878185e+01
5.198259943181817988e+01 5.209434185606060908e+01 6.843556660353534937e+01
5.203618213383838054e+01 5.227371369949494806e+01 6.853902304292928704e+01
5.214445233585858830e+01 5.241118213383838054e+01 6.863529829545454675e+01
5.216733743686868507e+01 5.255796243686868507e+01 6.870363794191919737e+01
5.225059185606060908e+01 5.272912720959595845e+01 6.878436710858585457e+01
5.240506628787878896e+01 5.295351957070707272e+01 6.894910037878787534e+01
5.248757102272727337e+01 5.316433869949494806e+01 6.907485006313130782e+01
5.258384627525252597e+01 5.338955965909090651e+01 6.918043718434343248e+01
5.271504103535353636e+01 5.356936553030303116e+01 6.930815972222222854e+01
5.279928188131312794e+01 5.377608112373737725e+01 6.941844223484848442e+01
5.285854640151514872e+01 5.396397569444444287e+01 6.952679135101010388e+01
5.296732954545454675e+01 5.414946338383838054e+01 6.963020833333332860e+01
5.305859375000000000e+01 5.437298768939393767e+01 6.975067077020202078e+01
5.316729797979797922e+01 5.454371843434343248e+01 6.985337752525252597e+01
5.280591066919191690e+01 5.403981218434343248e+01 6.943390940656566102e+01
5.210014204545454675e+01 5.283293876262626299e+01 6.856021148989898961e+01
5.161442550505050519e+01 5.183443813131312794e+01 6.795880681818181301e+01
5.138533775252525260e+01 5.133609532828283051e+01 6.770399305555555713e+01
5.127892203282828376e+01 5.107074652777777857e+01 6.756901041666667140e+01
5.115901199494949481e+01 5.081321022727272663e+01 6.739449179292928704e+01
5.098098169191919027e+01 5.050623421717171624e+01 6.714843750000000000e+01
5.092570233585858830e+01 5.039350536616161946e+01 6.710594223484848442e+01
5.109741950757575779e+01 5.056127683080808310e+01 6.726803188131313505e+01
5.118639520202020066e+01 5.075662878787878896e+01 6.741887626262625588e+01
5.124988162878787534e+01 5.080322758838384090e+01 6.743643465909090651e+01
5.124976325757575779e+01 5.084572285353535648e+01 6.744452335858585457e+01
5.129146938131312794e+01 5.090763099747474740e+01 6.748117897727273373e+01
5.133743686868687206e+01 5.106123737373737725e+01 6.759406565656566102e+01
5.147987689393939092e+01 5.127170138888888573e+01 6.776223169191919737e+01
5.157015467171716949e+01 5.148776830808080973e+01 6.786292613636364024e+01
5.170245422979797922e+01 5.171713226010101039e+01 6.803405145202020776e+01
5.177221433080808310e+01 5.191962594696969546e+01 6.815763099747475451e+01
5.189812184343434609e+01 5.207615214646464352e+01 6.825307765151515582e+01
5.192728061868687206e+01 5.227434501262626299e+01 6.835830965909090651e+01
5.208704229797979934e+01 5.246014835858586167e+01 6.842653093434343248e+01
5.213770517676767469e+01 5.262444760101010388e+01 6.856668244949494806e+01
5.224731691919191690e+01 5.285542929292929415e+01 6.869302398989898961e+01
5.233704229797979934e+01 5.305737058080808310e+01 6.882867739898989612e+01
5.247814078282828376e+01 5.328227588383838054e+01 6.895525568181818699e+01
5.254462594696969546e+01 5.351937342171716949e+01 6.908929135101010388e+01
5.266015625000000000e+01 5.372281407828283051e+01 6.923386205808080263e+01
5.275189393939393767e+01 5.390467171717171624e+01 6.933459595959595845e+01
5.290222537878787534e+01 5.409477588383838054e+01 6.944120896464646364e+01
5.290924873737373701e+01 5.431991792929292728e+01 6.954592803030303116e+01
5.306293402777777857e+01 5.453089488636363313e+01 6.969408933080808310e+01
5.305926452020202078e+01 5.458656881313131493e+01 6.968836805555555713e+01
5.256991792929292728e+01 5.381044823232323182e+01 6.905855429292928704e+01
5.187661773989898961e+01 5.258400410353535648e+01 6.821168718434343248e+01
5.143903882575757791e+01 5.171997316919191690e+01 6.770371685606060908e+01
5.130890940656565391e+01 5.134505208333333570e+01 6.752860637626262985e+01
5.121401515151514872e+01 5.109659090909090651e+01 6.740293560606060908e+01
5.106802398989898961e+01 5.078630050505050519e+01 6.720328282828282340e+01
5.091828440656565391e+01 5.053365688131312794e+01 6.703618213383838054e+01
5.091086647727272663e+01 5.053539299242424221e+01 6.705306976010101039e+01
5.107962436868687206e+01 5.074171401515151558e+01 6.723271780303029743e+01
5.114141414141413833e+01 5.083759469696969546e+01 6.729419191919191690e+01
5.116796875000000000e+01 5.090471117424242209e+01 6.728760258838383379e+01
5.116141887626262275e+01 5.092341382575757791e+01 6.732840119949494806e+01
5.121886837121212466e+01 5.102158301767676818e+01 6.738600852272726627e+01
5.131001420454545325e+01 5.123394097222222143e+01 6.751282354797979224e+01
5.137290877525252597e+01 5.137464488636363313e+01 6.763663983585858830e+01
5.150978535353535648e+01 5.157938762626262275e+01 6.776104797979797922e+01
5.159773516414141170e+01 5.176045612373737725e+01 6.786367582070707272e+01
5.170809659090909349e+01 5.196709280303030454e+01 6.801112689393939092e+01
5.179892676767676818e+01 5.213888888888888573e+01 6.808159722222222854e+01
5.185827020202020066e+01 5.227335858585858830e+01 6.815640782828282340e+01
5.197127525252525260e+01 5.242282196969696884e+01 6.826546717171717660e+01
5.201428345959595845e+01 5.261829229797979934e+01 6.836024305555555713e+01
5.210381155303030454e+01 5.279620422979797922e+01 6.845829387626262985e+01
5.217522885101010388e+01 5.298283617424242209e+01 6.859805082070707272e+01
5.227588383838384090e+01 5.315546085858586167e+01 6.871006944444444287e+01
5.237113320707070585e+01 5.333514835858586167e+01 6.883120265151515582e+01
5.246965751262626299e+01 5.352047821969696884e+01 6.894566761363635976e+01
5.256104008838384090e+01 5.371255523989898961e+01 6.906624842171717660e+01
5.262448705808080973e+01 5.390068655303030454e+01 6.911549084595959869e+01
5.261375473484848442e+01 5.393525094696969546e+01 6.912985321969696884e+01
5.213644255050505194e+01 5.324928977272727337e+01 6.855942234848484418e+01
5.149751420454545325e+01 5.201803188131312794e+01 6.773520359848484418e+01
5.108877840909090651e+01 5.118521148989898961e+01 6.721046401515151558e+01
5.093375157828283051e+01 5.081411773989898961e+01 6.705401672979797922e+01
5.087634154040404155e+01 5.060108901515151558e+01 6.694310290404040131e+01
5.070079703282828376e+01 5.036651672979797922e+01 6.679281092171717660e+01
5.062279040404040131e+01 5.017724116161615910e+01 6.667203282828282340e+01
5.071657986111111427e+01 5.027986900252525260e+01 6.678160511363635976e+01
5.087073863636363313e+01 5.047364267676767469e+01 6.693134469696970257e+01
5.084524936868687206e+01 5.048587436868687206e+01 6.693631628787878185e+01
5.082859848484848442e+01 5.046875000000000000e+01 6.689614898989898961e+01
5.083368844696969546e+01 5.046452809343434609e+01 6.691844223484848442e+01
5.090439551767676818e+01 5.058258364898989612e+01 6.697967960858585457e+01
5.104896622474747403e+01 5.078839172979797922e+01 6.711951546717172334e+01
5.116895517676767469e+01 5.100481376262626299e+01 6.728464330808080263e+01
5.122510258838384090e+01 5.122036773989898961e+01 6.738577178030303116e+01
5.136979166666666430e+01 5.137894570707070585e+01 6.756660353535353636e+01
5.145896464646464352e+01 5.159674873737373701e+01 6.769760101010101039e+01
5.154190340909090651e+01 5.176933396464646364e+01 6.779474431818181301e+01
5.163348327020202078e+01 5.195624210858586167e+01 6.789910827020202078e+01
5.171882891414141170e+01 5.213707386363636687e+01 6.799960542929292728e+01
5.184146148989898961e+01 5.235661300505050519e+01 6.812981376262625588e+01
5.192297979797979934e+01 5.251799242424242209e+01 6.826515151515151558e+01
5.205567392676767469e+01 5.276416508838384090e+01 6.842877998737374412e+01
5.220446654040404155e+01 5.300923295454545325e+01 6.859382891414141170e+01
5.229419191919191690e+01 5.325868055555555713e+01 6.874984217171717660e+01
5.226452020202020066e+01 5.327572601010101039e+01 6.870691287878787534e+01
5.174629103535353636e+01 5.253132891414141170e+01 6.810882260101010388e+01
5.118355429292929415e+01 5.147301136363636687e+01 6.738904671717172334e+01
5.084343434343434609e+01 5.078756313131312794e+01 6.700868055555555713e+01
5.080184659090909349e+01 5.062823547979797922e+01 6.692290088383838054e+01
5.069866635101010388e+01 5.045734690656565391e+01 6.689579387626262985e+01
5.065037089646464352e+01 5.029336332070707272e+01 6.679746685606060908e+01
5.065119949494949481e+01 5.027020202020202078e+01 6.680902777777777146e+01
5.080062342171716949e+01 5.049885574494949481e+01 6.700169665404040131e+01
5.096034564393939092e+01 5.074538352272727337e+01 6.721744791666667140e+01
5.100067077020202078e+01 5.082674400252525260e+01 6.725493213383838054e+01
5.104127209595959869e+01 5.089970012626262275e+01 6.727059659090909349e+01
5.107615214646464352e+01 5.098098169191919027e+01 6.732899305555555713e+01
5.118012152777777857e+01 5.117806976010101039e+01 6.748204703282827666e+01
5.135759943181817988e+01 5.142814867424242209e+01 6.767073074494949481e+01
5.143300189393939092e+01 5.168757891414141170e+01 6.781084280303029743e+01
5.158696338383838054e+01 5.195186237373737725e+01 6.802761994949494806e+01
5.168742108585858830e+01 5.223429608585858830e+01 6.817305871212121815e+01
5.181344696969696884e+01 5.247601010101010388e+01 6.832796717171717660e+01
5.192838541666666430e+01 5.272810132575757791e+01 6.848693970959595845e+01
5.208980429292929415e+01 5.296527777777777857e+01 6.863731060606060908e+01
5.220123106060606233e+01 5.324005681818182012e+01 6.883207070707071296e+01
5.237263257575757791e+01 5.352698863636363313e+01 6.900142045454545325e+01
5.246725063131312794e+01 5.380263573232323182e+01 6.919105113636364024e+01
5.269479955808080973e+01 5.412409248737373701e+01 6.939176925505050519e+01
5.282816445707070585e+01 5.442649147727272663e+01 6.957563920454545325e+01
5.295845170454545325e+01 5.469898200757575779e+01 6.974001736111111427e+01
5.291583806818182012e+01 5.465936710858586167e+01 6.965952493686869218e+01
5.239468907828283051e+01 5.394045928030303116e+01 6.907492897727273373e+01
5.196803977272727337e+01 5.320920138888888573e+01 6.857204861111111427e+01
5.183735795454545325e+01 5.288044507575757791e+01 6.841942866161616621e+01
5.174329229797979934e+01 5.274944760101010388e+01 6.834556502525252597e+01
5.171125315656565391e+01 5.256336805555555713e+01 6.827138573232323893e+01
5.160152304292929415e+01 5.238687657828283051e+01 6.817775410353534937e+01
5.161892361111111427e+01 5.233688446969696884e+01 6.814970012626262985e+01
5.173709753787878896e+01 5.255890940656565391e+01 6.832658617424242209e+01
5.184651199494949481e+01 5.273192866161615910e+01 6.845588699494949481e+01
5.184355271464646364e+01 5.280204387626262275e+01 6.846444917929292728e+01
5.189287405303030454e+01 5.285925662878787534e+01 6.849341066919191690e+01
5.186991003787878896e+01 5.291205018939393767e+01 6.851037720959595845e+01
5.195699179292929415e+01 5.301191603535353636e+01 6.858230744949494806e+01
5.206648516414141170e+01 5.325224905303030454e+01 6.872589172979797922e+01
5.218181818181817988e+01 5.350710227272727337e+01 6.888967803030303116e+01
5.226676925505050519e+01 5.371989425505050519e+01 6.897557607323231821e+01
5.246831597222222143e+01 5.394227430555555713e+01 6.914255839646465063e+01
5.249242424242424221e+01 5.416382575757575779e+01 6.925426136363635976e+01
5.266386521464646364e+01 5.439098011363636687e+01 6.938671875000000000e+01
5.273871527777777857e+01 5.458672664141413833e+01 6.950528724747475451e+01
5.289555713383838054e+01 5.483921243686868507e+01 6.964461016414141170e+01
5.298405934343434609e+01 5.508538510101010388e+01 6.978093434343433898e+01
5.307500789141413833e+01 5.531159248737373701e+01 6.989019097222222854e+01
5.322241950757575779e+01 5.557011521464646364e+01 7.005985637626262985e+01
5.331794507575757791e+01 5.578385416666666430e+01 7.018584280303029743e+01
5.341331281565656752e+01 5.598038983585858830e+01 7.028199968434343248e+01
5.353705018939393767e+01 5.621145044191919027e+01 7.042230902777777146e+01
5.368268623737373701e+01 5.646346275252525260e+01 7.056178977272726627e+01
5.381443339646464352e+01 5.668801294191919027e+01 7.070679450757575069e+01
5.380658143939393767e+01 5.683057133838384090e+01 7.072230113636364024e+01
5.353093434343434609e+01 5.640151515151514872e+01 7.037042297979797922e+01
5.310677083333333570e+01 5.574518623737373701e+01 6.984272411616161946e+01
5.287989267676767469e+01 5.537042297979797922e+01 6.962136994949494806e+01
5.281530145202020066e+01 5.524270044191919027e+01 6.959828756313130782e+01
5.283830492424242209e+01 5.515348800505050519e+01 6.956352588383838054e+01
5.270454545454545325e+01 5.495659722222222143e+01 6.944933712121212466e+01
5.263012941919191690e+01 5.479648042929292728e+01 6.935913825757575069e+01
5.263087910353535648e+01 5.480243844696969546e+01 6.936004577020202078e+01
5.273346748737373701e+01 5.493422506313131493e+01 6.949341066919191690e+01
5.278736584595959869e+01 5.501511205808080973e+01 6.954068023989898961e+01
5.280563446969696884e+01 5.502185921717171624e+01 6.954916351010101039e+01
5.279675662878787534e+01 5.505954071969696884e+01 6.955622632575757791e+01
5.284434185606060908e+01 5.512511837121212466e+01 6.958124210858585457e+01
5.288821811868687206e+01 5.526432291666666430e+01 6.967151988636364024e+01
5.305583175505050519e+01 5.544424715909090651e+01 6.977189867424242209e+01
5.309931344696969546e+01 5.558147885101010388e+01 6.987109375000000000e+01
5.318935448232323182e+01 5.574049084595959869e+01 6.995829387626262985e+01
5.322675978535353636e+01 5.586075599747474740e+01 7.006609059343433898e+01
5.332705965909090651e+01 5.600587910353535648e+01 7.013640309343433898e+01
5.338423295454545325e+01 5.613060290404040131e+01 7.020904356060606233e+01
5.344799558080808310e+01 5.627438446969696884e+01 7.028906250000000000e+01
5.354730902777777857e+01 5.645561079545454675e+01 7.037243529040404155e+01
5.365909090909090651e+01 5.661489898989898961e+01 7.048232323232323893e+01
5.368923611111111427e+01 5.677809343434343248e+01 7.059359217171717660e+01
5.383337279040404155e+01 5.697336647727272663e+01 7.069653566919191690e+01
5.391469381313131493e+01 5.715664457070707272e+01 7.077833017676768179e+01
5.398737373737373701e+01 5.731281565656565391e+01 7.087500000000000000e+01
5.406908933080808310e+01 5.747960069444444287e+01 7.097312973484848442e+01
5.414062500000000000e+01 5.764062500000000000e+01 7.104924242424242209e+01
5.419330018939393767e+01 5.778799715909090651e+01 7.113758680555555713e+01
5.429375789141413833e+01 5.794164299242424221e+01 7.124214804292928704e+01
5.436655618686868507e+01 5.812839330808080973e+01 7.132915088383838054e+01
5.443394886363636687e+01 5.826081123737373701e+01 7.139023042929292728e+01
5.420391414141413833e+01 5.796417297979797922e+01 7.114046717171717660e+01
5.374775094696969546e+01 5.714658301767676818e+01 7.054841382575757791e+01
5.342996369949494806e+01 5.654391571969696884e+01 7.018643465909090651e+01
5.329008838383838054e+01 5.617755681818182012e+01 7.010432449494949481e+01
5.319720643939393767e+01 5.595746527777777857e+01 7.003464330808080263e+01
5.306676136363636687e+01 5.568907828282828376e+01 6.991098484848484418e+01
5.287290877525252597e+01 5.537669665404040131e+01 6.976479640151515582e+01
5.285562657828283051e+01 5.522668087121212466e+01 6.970616319444444287e+01
5.290557922979797922e+01 5.525595801767676818e+01 6.977079387626262985e+01
5.289532039141413833e+01 5.525011837121212466e+01 6.977994791666667140e+01
5.290041035353535648e+01 5.515845959595959869e+01 6.972253787878787534e+01
5.284260574494949481e+01 5.506403882575757791e+01 6.968461963383838054e+01
5.281368371212121104e+01 5.502312184343434609e+01 6.965206755050505194e+01
5.281490688131312794e+01 5.500477430555555713e+01 6.967428188131313505e+01
5.284864267676767469e+01 5.508317550505050519e+01 6.971654040404040131e+01
5.288746843434343248e+01 5.516824494949494806e+01 6.978361742424242209e+01
5.295505839646464352e+01 5.526345486111111427e+01 6.984868213383838054e+01
5.301933396464646364e+01 5.535266729797979934e+01 6.993221275252524549e+01
5.305153093434343248e+01 5.542447916666666430e+01 6.996709280303029743e+01
5.312452651515151558e+01 5.553282828282828376e+01 7.002825126262625588e+01
5.316307607323232531e+01 5.559915561868687206e+01 7.009378945707071296e+01
5.326404671717171624e+01 5.571859217171716949e+01 7.017187500000000000e+01
5.327505523989898961e+01 5.583439867424242209e+01 7.023038983585858830e+01
5.340396148989898961e+01 5.596946022727272663e+01 7.032504734848484418e+01
5.344381313131312794e+01 5.608933080808080973e+01 7.039898989898989612e+01
5.353949652777777857e+01 5.624814551767676818e+01 7.050619476010101039e+01
5.356723484848485128e+01 5.634548611111111427e+01 7.054971590909090651e+01
5.369085385101010388e+01 5.652213541666666430e+01 7.066260258838383379e+01
5.374096433080808310e+01 5.668004261363636687e+01 7.078499842171717660e+01
5.381916824494949481e+01 5.677308238636363313e+01 7.083574021464646364e+01
5.351874210858586167e+01 5.637038352272727337e+01 7.051637468434343248e+01
5.303385416666666430e+01 5.544468118686868507e+01 6.989685921717172334e+01
5.262125157828283051e+01 5.474925031565656752e+01 6.948693970959595845e+01
5.250654987373737725e+01 5.435677083333333570e+01 6.934588068181818699e+01
5.239192708333333570e+01 5.412661773989898961e+01 6.922194602272726627e+01
5.223417771464646364e+01 5.384828756313131493e+01 6.907445549242424931e+01
5.208132102272727337e+01 5.352087279040404155e+01 6.889492582070707272e+01
5.205330650252525260e+01 5.343446180555555713e+01 6.886817392676768179e+01
5.210992739898989612e+01 5.345935921717171624e+01 6.889338699494949481e+01
5.210286458333333570e+01 5.340368529040404155e+01 6.885144412878787534e+01
5.201179766414141170e+01 5.326369160353535648e+01 6.872944286616161946e+01
5.202560763888888573e+01 5.320568970959595845e+01 6.869858743686869218e+01
5.199601483585858830e+01 5.320734690656565391e+01 6.872028882575757791e+01
5.202604166666666430e+01 5.326294191919191690e+01 6.877935606060606233e+01
5.211268939393939092e+01 5.340767045454545325e+01 6.888873106060606233e+01
5.225205176767676818e+01 5.357417929292929415e+01 6.898753156565656752e+01
5.232855902777777857e+01 5.369961332070707272e+01 6.906972064393939092e+01
5.240621054292929415e+01 5.381908933080808310e+01 6.914532039141414543e+01
5.243947285353535648e+01 5.396661931818182012e+01 6.920967487373737015e+01
5.255003156565656752e+01 5.411079545454545325e+01 6.931818181818181301e+01
5.260140467171716949e+01 5.425007891414141170e+01 6.941674558080808310e+01
5.268852588383838054e+01 5.440822285353535648e+01 6.950165719696970257e+01
5.278811553030303116e+01 5.458704229797979934e+01 6.962634154040404155e+01
5.292301925505050519e+01 5.479912405303030454e+01 6.977655460858585457e+01
5.298567708333333570e+01 5.501313920454545325e+01 6.994195864898989612e+01
5.313060290404040131e+01 5.518694760101010388e+01 7.002485795454545325e+01
5.299818497474747403e+01 5.501775568181817988e+01 6.987255366161616621e+01
5.244519412878787534e+01 5.417041508838384090e+01 6.923954387626262985e+01
5.199719854797979934e+01 5.331569602272727337e+01 6.871800031565656752e+01
5.178472222222222143e+01 5.281376262626262275e+01 6.849147727272726627e+01
5.169239267676767469e+01 5.255555555555555713e+01 6.834706439393939092e+01
5.159122474747474740e+01 5.229024621212121104e+01 6.821827651515151558e+01
5.141181344696969546e+01 5.199467329545454675e+01 6.805449021464646364e+01
5.141185290404040131e+01 5.190932765151514872e+01 6.801112689393939092e+01
5.148520359848485128e+01 5.201834753787878896e+01 6.810878314393939092e+01
5.163364109848485128e+01 5.222691761363636687e+01 6.824775094696970257e+01
5.160310132575757791e+01 5.226534880050505194e+01 6.825130208333332860e+01
5.162338226010101039e+01 5.227410827020202078e+01 6.827521306818181301e+01
5.167282196969696884e+01 5.233491161616161946e+01 6.831833964646465063e+01
5.179494160353535648e+01 5.252047821969696884e+01 6.847391887626262985e+01
5.187440814393939092e+01 5.275619476010101039e+01 6.860657354797979224e+01
5.203953598484848442e+01 5.299013573232323182e+01 6.879127209595959869e+01
5.215151515151514872e+01 5.323595328282828376e+01 6.894618055555555713e+01
5.224092487373737725e+01 5.344026199494949481e+01 6.907204861111111427e+01
5.236888415404040131e+01 5.364760890151514872e+01 6.921878945707071296e+01
5.251708491161615910e+01 5.385878314393939092e+01 6.932374526515151558e+01
5.261643781565656752e+01 5.408124210858586167e+01 6.950059185606060908e+01
5.276882102272727337e+01 5.434347380050505194e+01 6.967696496212121815e+01
5.287397411616161946e+01 5.459809027777777857e+01 6.982457386363635976e+01
5.301763731060606233e+01 5.481861584595959869e+01 6.997202493686869218e+01
5.312847222222222143e+01 5.507260101010101039e+01 7.013589015151515582e+01
5.328132891414141170e+01 5.533704229797979934e+01 7.030263573232323893e+01
5.343390940656565391e+01 5.561083491161615910e+01 7.051203440656566102e+01
5.358053188131312794e+01 5.585136521464646364e+01 7.063766571969696884e+01
5.342526830808080973e+01 5.572451073232323182e+01 7.047798295454545325e+01
5.300532670454545325e+01 5.498086332070707272e+01 6.999538352272726627e+01
5.267013888888888573e+01 5.441461489898989612e+01 6.965814393939393767e+01
5.256277619949494806e+01 5.418667140151514872e+01 6.957682291666667140e+01
5.254896622474747403e+01 5.406411773989898961e+01 6.957469223484848442e+01
5.247565498737373701e+01 5.394345801767676818e+01 6.947944286616161946e+01
5.235645517676767469e+01 5.374297664141413833e+01 6.939938446969696884e+01
5.240636837121212466e+01 5.370497948232323182e+01 6.940415877525252597e+01
5.249317392676767469e+01 5.389705650252525260e+01 6.953768150252524549e+01
5.263123421717171624e+01 5.409319760101010388e+01 6.965680239898989612e+01
5.263636363636363313e+01 5.418955176767676818e+01 6.971369949494949481e+01
5.272147253787878896e+01 5.429738794191919027e+01 6.978144728535353636e+01
5.281040877525252597e+01 5.443430397727272663e+01 6.989595170454545325e+01
5.291141887626262275e+01 5.460775726010101039e+01 6.999522569444444287e+01
5.298926767676767469e+01 5.487279040404040131e+01 7.014693813131313505e+01
5.316875789141413833e+01 5.508731849747474740e+01 7.029296875000000000e+01
5.331265782828283051e+01 5.535069444444444287e+01 7.045407196969696884e+01
5.342053345959595845e+01 5.558909406565656752e+01 7.060314078282827666e+01
5.352659406565656752e+01 5.581399936868687206e+01 7.071709280303029743e+01
5.365913036616161946e+01 5.602481849747474740e+01 7.084331597222222854e+01
5.374834280303030454e+01 5.626017992424242209e+01 7.096725063131313505e+01
5.388778409090909349e+01 5.650568181818182012e+01 7.109722222222222854e+01
5.403570864898989612e+01 5.674514678030303116e+01 7.124656723484848442e+01
5.416035353535353636e+01 5.700363005050505194e+01 7.137389520202020776e+01
5.424191130050505194e+01 5.725090751262626299e+01 7.152395044191919737e+01
5.435763888888888573e+01 5.747995580808080973e+01 7.165956439393939092e+01
5.451700599747474740e+01 5.773165246212121104e+01 7.182398200757575069e+01
5.460980902777777857e+01 5.796492266414141170e+01 7.194724589646465063e+01
5.470730744949494806e+01 5.818379103535353636e+01 7.206573547979797922e+01
5.483159722222222143e+01 5.844649621212121104e+01 7.221638257575757791e+01
5.492159880050505194e+01 5.868706597222222143e+01 7.233810763888888573e+01
5.492384785353535648e+01 5.863439078282828376e+01 7.224597537878787534e+01
5.450197285353535648e+01 5.803590593434343248e+01 7.176223169191919737e+01
5.428456439393939092e+01 5.768402777777777857e+01 7.150978535353534937e+01
5.428310448232323182e+01 5.764090119949494806e+01 7.152915877525252597e+01
5.430685763888888573e+01 5.764555713383838054e+01 7.153791824494949481e+01
5.428499842171716949e+01 5.757950599747474740e+01 7.150248579545454675e+01
5.424321338383838054e+01 5.748263888888888573e+01 7.143655303030303116e+01
5.421476483585858830e+01 5.747802241161615910e+01 7.144913983585858830e+01
5.430492424242424221e+01 5.761505681818182012e+01 7.155034722222222854e+01
5.439086174242424221e+01 5.778622159090909349e+01 7.167858270202020776e+01
5.447265625000000000e+01 5.783092645202020066e+01 7.169756155303029743e+01
5.448042929292929415e+01 5.786379419191919027e+01 7.171291035353534937e+01
5.449684343434343248e+01 5.793323863636363313e+01 7.172821969696970257e+01
5.452596275252525260e+01 5.806983901515151558e+01 7.182157512626262985e+01
5.459319760101010388e+01 5.825055239898989612e+01 7.185945391414141170e+01
5.467207228535353636e+01 5.836620107323232531e+01 7.193154198232323893e+01
5.479884785353535648e+01 5.852675189393939092e+01 7.204790088383838054e+01
5.482556029040404155e+01 5.865321180555555713e+01 7.213348327020202078e+01
5.492834595959595845e+01 5.884485479797979934e+01 7.222032828282827666e+01
5.501286300505050519e+01 5.896614583333333570e+01 7.229979482323231821e+01
5.505531881313131493e+01 5.907883522727272663e+01 7.238044507575757791e+01
5.510314078282828376e+01 5.926333648989898961e+01 7.244641729797979224e+01
5.521456755050505194e+01 5.942163825757575779e+01 7.253259154040404155e+01
5.522052556818182012e+01 5.958937026515151558e+01 7.261004577020202078e+01
5.535984848484848442e+01 5.976089015151514872e+01 7.269933712121212466e+01
5.543489583333333570e+01 5.993268623737373701e+01 7.278132891414141170e+01
5.551949179292929415e+01 6.006557765151514872e+01 7.286418876262625588e+01
5.558029513888888573e+01 6.023323074494949481e+01 7.295924084595959869e+01
5.570533459595959869e+01 6.039820075757575779e+01 7.303598484848484418e+01
5.577690972222222143e+01 6.056952335858586167e+01 7.311529356060606233e+01
5.588048453282828376e+01 6.072944286616161946e+01 7.321002998737374412e+01
5.591051136363636687e+01 6.090561868686868507e+01 7.328472222222222854e+01
5.601140309343434609e+01 6.105228061868687206e+01 7.338877051767676107e+01
5.576665088383838054e+01 6.071046401515151558e+01 7.310266729797979224e+01
5.537795928030303116e+01 6.004872948232323182e+01 7.256703756313130782e+01
5.520261205808080973e+01 5.972581281565656752e+01 7.240463226010101039e+01
5.524684343434343248e+01 5.966477272727272663e+01 7.246070075757575069e+01
5.523480902777777857e+01 5.958708175505050519e+01 7.249932922979797922e+01
5.513735006313131493e+01 5.942459753787878896e+01 7.242759627525252597e+01
5.506044823232323182e+01 5.922837752525252597e+01 7.237752525252524549e+01
5.508349116161615910e+01 5.921354166666666430e+01 7.238352272727273373e+01
5.511079545454545325e+01 5.923358585858586167e+01 7.243465909090909349e+01
5.515711805555555713e+01 5.921898674242424221e+01 7.246835542929292728e+01
5.509844539141413833e+01 5.918746054292929415e+01 7.244219539141414543e+01
5.508428030303030454e+01 5.910590277777777857e+01 7.240845959595959869e+01
5.502576546717171624e+01 5.905022885101010388e+01 7.240123895202020776e+01
5.509367108585858830e+01 5.907504734848485128e+01 7.243963068181818699e+01
5.511343907828283051e+01 5.910365372474747403e+01 7.247549715909090651e+01
5.515269886363636687e+01 5.917053345959595845e+01 7.253369633838383379e+01
5.516911300505050519e+01 5.923334911616161946e+01 7.259682765151515582e+01
5.524175347222222143e+01 5.930551609848485128e+01 7.261991003787878185e+01
5.522873263888888573e+01 5.935436395202020066e+01 7.264192708333332860e+01
5.529505997474747403e+01 5.940743371212121104e+01 7.269073547979797922e+01
5.529474431818182012e+01 5.946077967171716949e+01 7.272324810606060908e+01
5.531964172979797922e+01 5.950319602272727337e+01 7.276408617424242209e+01
5.540096275252525260e+01 5.962223800505050519e+01 7.285519255050505194e+01
5.542396622474747403e+01 5.967822758838384090e+01 7.289066445707071296e+01
5.546819760101010388e+01 5.977501578282828376e+01 7.294341856060606233e+01
5.554387626262626299e+01 5.986758207070707272e+01 7.299510732323231821e+01
5.558692392676767469e+01 5.995103377525252597e+01 7.305346433080808310e+01
5.562460542929292728e+01 6.007820391414141170e+01 7.312649936868686495e+01
5.567290088383838054e+01 6.018268623737373701e+01 7.318031881313130782e+01
5.564800347222222143e+01 6.012748579545454675e+01 7.311044034090909349e+01
5.525311710858586167e+01 5.946208175505050519e+01 7.263758680555555713e+01
5.489768781565656752e+01 5.874270044191919027e+01 7.224633049242424931e+01
5.474763257575757791e+01 5.837989267676767469e+01 7.211016414141414543e+01
5.476740056818182012e+01 5.820853061868687206e+01 7.209773516414141170e+01
5.467601799242424221e+01 5.801976799242424221e+01 7.202355587121212466e+01
5.453914141414141170e+01 5.774763257575757791e+01 7.191682449494949481e+01
5.448662405303030454e+01 5.759157986111111427e+01 7.186651672979797922e+01
5.451886047979797922e+01 5.757930871212121104e+01 7.189133522727273373e+01
5.450469539141413833e+01 5.756766887626262275e+01 7.188837594696970257e+01
5.445584753787878896e+01 5.743517203282828376e+01 7.182311395202020776e+01
5.439180871212121104e+01 5.731163194444444287e+01 7.175023674242424931e+01
5.440530303030303116e+01 5.725331439393939092e+01 7.172679924242424931e+01
5.439563604797979934e+01 5.724838226010101039e+01 7.173875473484848442e+01
5.439796401515151558e+01 5.727943497474747403e+01 7.176238952020202078e+01
5.443738162878787534e+01 5.734568339646464352e+01 7.183068970959595845e+01
5.448157354797979934e+01 5.741970486111111427e+01 7.184710385101010388e+01
5.450434027777777857e+01 5.745762310606060908e+01 7.189654356060606233e+01
5.454655934343434609e+01 5.751830808080808310e+01 7.191777146464646364e+01
5.455630523989898961e+01 5.757698074494949481e+01 7.197707544191919737e+01
5.461576704545454675e+01 5.765601325757575779e+01 7.201380997474747403e+01
5.466161616161615910e+01 5.773263888888888573e+01 7.205271464646465063e+01
5.471863162878787534e+01 5.781664299242424221e+01 7.210104955808080263e+01
5.477541035353535648e+01 5.792408459595959869e+01 7.219696969696970257e+01
5.486249210858586167e+01 5.805835700757575779e+01 7.228831281565656752e+01
5.483763415404040131e+01 5.816781092171716949e+01 7.233747632575757791e+01
5.482504734848485128e+01 5.809777462121212466e+01 7.227327967171717660e+01
5.439658301767676818e+01 5.739674084595959869e+01 7.176889993686869218e+01
5.403894412878787534e+01 5.662701231060606233e+01 7.129620422979797922e+01
5.378495896464646364e+01 5.619373421717171624e+01 7.108309659090909349e+01
5.377067550505050519e+01 5.594302398989898961e+01 7.100000000000000000e+01
5.364421559343434609e+01 5.570876736111111427e+01 7.087401357323231821e+01
5.344184027777777857e+01 5.541627209595959869e+01 7.068631628787878185e+01
5.335779671717171624e+01 5.520028409090909349e+01 7.060101010101010388e+01
5.339315025252525260e+01 5.520344065656565391e+01 7.060385101010101039e+01
5.340991950757575779e+01 5.523899147727272663e+01 7.061541193181818699e+01
5.338332544191919027e+01 5.518414614898989612e+01 7.058834438131313505e+01
5.328022411616161946e+01 5.506573547979797922e+01 7.049534406565656752e+01
5.329707228535353636e+01 5.501913667929292728e+01 7.047305082070707272e+01
5.331167140151514872e+01 5.504825599747474740e+01 7.049348958333332860e+01
5.336576704545454675e+01 5.510708648989898961e+01 7.053464330808080263e+01
5.340869633838384090e+01 5.523113952020202078e+01 7.059745896464646364e+01
5.343442234848485128e+01 5.531210542929292728e+01 7.064464962121212466e+01
5.348173137626262275e+01 5.541544349747474740e+01 7.067806976010101039e+01
5.362338226010101039e+01 5.557634943181817988e+01 7.079967645202020776e+01
5.361691130050505194e+01 5.571002998737373701e+01 7.083992266414141170e+01
5.373244160353535648e+01 5.581040877525252597e+01 7.092309816919191690e+01
5.376049558080808310e+01 5.593536931818182012e+01 7.099565972222222854e+01
5.391299715909090651e+01 5.612385574494949481e+01 7.109797190656566102e+01
5.395422979797979934e+01 5.628046085858586167e+01 7.122537878787878185e+01
5.401483585858586167e+01 5.640719696969696884e+01 7.131439393939393767e+01
5.413044507575757791e+01 5.657773042929292728e+01 7.139764835858585457e+01
5.425477430555555713e+01 5.677087279040404155e+01 7.150745738636364024e+01
5.430812026515151558e+01 5.696089804292929415e+01 7.162661773989898961e+01
5.443497474747474740e+01 5.714599116161615910e+01 7.170628156565656752e+01
5.431238162878787534e+01 5.704217960858586167e+01 7.163119476010101039e+01
5.385961174242424221e+01 5.629064078282828376e+01 7.104221906565656752e+01
5.345703125000000000e+01 5.556056660353535648e+01 7.059749842171717660e+01
5.332224589646464352e+01 5.524585700757575779e+01 7.043556660353534937e+01
5.321803977272727337e+01 5.505705492424242209e+01 7.036908143939393767e+01
5.315194917929292728e+01 5.488443023989898961e+01 7.028042140151515582e+01
5.298938604797979934e+01 5.462180397727272663e+01 7.012227746212121815e+01
5.289950284090909349e+01 5.444637784090909349e+01 6.998094223484848442e+01
5.292514993686868507e+01 5.447502367424242209e+01 7.005141256313130782e+01
5.300169665404040131e+01 5.458992266414141170e+01 7.015589488636364024e+01
5.304794034090909349e+01 5.462985321969696884e+01 7.018809185606060908e+01
5.303231534090909349e+01 5.467151988636363313e+01 7.018461963383838054e+01
5.306273674242424221e+01 5.471220012626262275e+01 7.023255997474747403e+01
5.314413667929292728e+01 5.482595486111111427e+01 7.028507733585858830e+01
5.322743055555555713e+01 5.497932449494949481e+01 7.042297979797979224e+01
5.330283301767676818e+01 5.515321180555555713e+01 7.049001736111111427e+01
5.342601799242424221e+01 5.533873895202020066e+01 7.061935763888888573e+01
5.349988162878787534e+01 5.552245107323232531e+01 7.070332228535353636e+01
5.359694602272727337e+01 5.568312026515151558e+01 7.080654198232323893e+01
5.366852114898989612e+01 5.584339488636363313e+01 7.090636837121212466e+01
5.377738320707070585e+01 5.604174558080808310e+01 7.102343750000000000e+01
5.383992266414141170e+01 5.621539614898989612e+01 7.110097064393939092e+01
5.391686395202020066e+01 5.640770991161615910e+01 7.124230587121212466e+01
5.411272885101010388e+01 5.660057607323232531e+01 7.136604324494949481e+01
5.413636363636363313e+01 5.680602904040404155e+01 7.145138888888888573e+01
5.426953125000000000e+01 5.699206912878787534e+01 7.157492897727273373e+01
5.433672664141413833e+01 5.718615845959595845e+01 7.167732007575757791e+01
5.443935448232323182e+01 5.737874842171716949e+01 7.177836963383838054e+01
5.451917613636363313e+01 5.757283775252525260e+01 7.191201073232323893e+01
5.463470643939393767e+01 5.777548926767676818e+01 7.202406881313130782e+01
5.469160353535353636e+01 5.795501893939393767e+01 7.211489898989898961e+01
5.485318023989898961e+01 5.814326862373737725e+01 7.224711963383838054e+01
5.493189709595959869e+01 5.833246527777777857e+01 7.236355744949494806e+01
5.498181029040404155e+01 5.848228377525252597e+01 7.242341382575757791e+01
5.464011205808080973e+01 5.804557291666666430e+01 7.202868529040404155e+01
5.421255523989898961e+01 5.720229640151514872e+01 7.145166508838383379e+01
5.390573705808080973e+01 5.674996054292929415e+01 7.119109059343433898e+01
5.386931818181817988e+01 5.660006313131312794e+01 7.115877525252524549e+01
5.383211016414141170e+01 5.649956597222222143e+01 7.111651672979797922e+01
5.375039457070707272e+01 5.628922032828283051e+01 7.102533143939393767e+01
5.362034406565656752e+01 5.604174558080808310e+01 7.087176452020202078e+01
5.363135258838384090e+01 5.600935132575757791e+01 7.086367582070707272e+01
5.369073547979797922e+01 5.606983901515151558e+01 7.092416351010101039e+01
5.371906565656565391e+01 5.614962121212121104e+01 7.098563762626262985e+01
5.372399779040404155e+01 5.611888415404040131e+01 7.096752683080808310e+01
5.375134154040404155e+01 5.612381628787878896e+01 7.095099431818181301e+01
5.373630839646464352e+01 5.614918718434343248e+01 7.098062657828282340e+01
5.379186395202020066e+01 5.623804450757575779e+01 7.103997001262625588e+01
5.387330334595959869e+01 5.637456597222222143e+01 7.115376420454545325e+01
5.393556660353535648e+01 5.650974589646464352e+01 7.124443655303029743e+01
5.398031092171716949e+01 5.665770991161615910e+01 7.129959753787878185e+01
5.407271938131312794e+01 5.677458175505050519e+01 7.138158933080808310e+01
5.407769097222222143e+01 5.691765309343434609e+01 7.141796875000000000e+01
5.417960858585858830e+01 5.702083333333333570e+01 7.150110479797979224e+01
5.421583017676767469e+01 5.712286931818182012e+01 7.155263573232323893e+01
5.430969854797979934e+01 5.727324021464646364e+01 7.163577178030303116e+01
5.436620107323232531e+01 5.745663667929292728e+01 7.174356849747475451e+01
5.450647095959595845e+01 5.760227272727272663e+01 7.187026515151515582e+01
5.454103535353535648e+01 5.774905303030303116e+01 7.197111742424242209e+01
5.464334753787878896e+01 5.791449652777777857e+01 7.203286773989898961e+01
5.470052083333333570e+01 5.804285037878787534e+01 7.213565340909090651e+01
5.474368686868687206e+01 5.819807449494949481e+01 7.221969696969696884e+01
5.483151830808080973e+01 5.834619633838384090e+01 7.231289457070707272e+01
5.492073074494949481e+01 5.850074968434343248e+01 7.238506155303029743e+01
5.498334911616161946e+01 5.867779356060606233e+01 7.250023674242424931e+01
5.500891729797979934e+01 5.874676452020202078e+01 7.249865845959595845e+01
5.471208175505050519e+01 5.825658933080808310e+01 7.212180397727273373e+01
5.421389678030303116e+01 5.739003314393939092e+01 7.153286773989898961e+01
5.390581597222222143e+01 5.684252683080808310e+01 7.123031092171717660e+01
5.381703756313131493e+01 5.658755523989898961e+01 7.111612215909090651e+01
5.381143465909090651e+01 5.644479955808080973e+01 7.108116319444444287e+01
5.368189709595959869e+01 5.622024936868687206e+01 7.095793876262625588e+01
5.357098327020202078e+01 5.600548453282828376e+01 7.084765625000000000e+01
5.356167140151514872e+01 5.595876736111111427e+01 7.080867266414141170e+01
5.358641098484848442e+01 5.600291982323232531e+01 7.085724431818181301e+01
5.362720959595959869e+01 5.596511994949494806e+01 7.086616161616161946e+01
5.356261837121212466e+01 5.586943655303030454e+01 7.080157039141414543e+01
5.353981218434343248e+01 5.582058869949494806e+01 7.077324021464646364e+01
5.358321496212121104e+01 5.586793718434343248e+01 7.081695864898989612e+01
5.373169191919191690e+01 5.605918560606060908e+01 7.097395833333332860e+01
5.382350852272727337e+01 5.625769412878787534e+01 7.109339488636364024e+01
5.391540404040404155e+01 5.637310606060606233e+01 7.117660984848484418e+01
5.394030145202020066e+01 5.649585700757575779e+01 7.123875473484848442e+01
5.399672506313131493e+01 5.660594223484848442e+01 7.129423137626262985e+01
5.402458175505050519e+01 5.667183554292929415e+01 7.130251736111111427e+01
5.409260574494949481e+01 5.673764993686868507e+01 7.137306660353534937e+01
5.415218592171716949e+01 5.687014678030303116e+01 7.147715435606060908e+01
5.421586963383838054e+01 5.697328756313131493e+01 7.153326231060606233e+01
5.424727746212121104e+01 5.712164614898989612e+01 7.159560448232323893e+01
5.435558712121212466e+01 5.726878156565656752e+01 7.169886363636364024e+01
5.441374684343434609e+01 5.743458017676767469e+01 7.179774305555555713e+01
5.450872001262626299e+01 5.760325915404040131e+01 7.190739425505050519e+01
5.456707702020202078e+01 5.773895202020202078e+01 7.198500631313130782e+01
5.458708175505050519e+01 5.777110953282828376e+01 7.197881155303029743e+01
5.417345328282828376e+01 5.713857323232323182e+01 7.151120580808080263e+01
5.368584280303030454e+01 5.617700441919191690e+01 7.087918244949494806e+01
5.332366635101010388e+01 5.556640625000000000e+01 7.051716382575757791e+01
5.319965277777777857e+01 5.527683080808080973e+01 7.040451388888888573e+01
5.311087436868687206e+01 5.505216224747474740e+01 7.030263573232323893e+01
5.298989898989898961e+01 5.475568181818182012e+01 7.012357954545454675e+01
5.282674400252525260e+01 5.448031092171716949e+01 6.996216066919191690e+01
5.284398674242424221e+01 5.444736426767676818e+01 6.995446654040404155e+01
5.289946338383838054e+01 5.447364267676767469e+01 6.998121843434343248e+01
5.290814393939393767e+01 5.442976641414141170e+01 6.998579545454545325e+01
5.283964646464646364e+01 5.435321969696969546e+01 6.991682449494949481e+01
5.284517045454545325e+01 5.432181186868687206e+01 6.990356691919191690e+01
5.284422348484848442e+01 5.432323232323232531e+01 6.991461489898989612e+01
5.288948074494949481e+01 5.440463226010101039e+01 6.998086332070707272e+01
5.298382260101010388e+01 5.454963699494949481e+01 7.010108901515151558e+01
5.306597222222222143e+01 5.471354166666666430e+01 7.017897727272726627e+01
5.312957702020202078e+01 5.485085227272727337e+01 7.025489267676768179e+01
5.318544823232323182e+01 5.494712752525252597e+01 7.031976010101010388e+01
5.324199021464646364e+01 5.506569602272727337e+01 7.039918718434343248e+01
5.330078125000000000e+01 5.520592645202020066e+01 7.046539614898989612e+01
5.333566130050505194e+01 5.535681029040404155e+01 7.054257417929292728e+01
5.348508522727272663e+01 5.552864583333333570e+01 7.064827967171717660e+01
5.357066761363636687e+01 5.565179135101010388e+01 7.076337594696970257e+01
5.364192708333333570e+01 5.579438920454545325e+01 7.084094854797979224e+01
5.371346275252525260e+01 5.598619002525252597e+01 7.095336174242424931e+01
5.382303503787878896e+01 5.618840751262626299e+01 7.106309185606060908e+01
5.388932291666666430e+01 5.634718276515151558e+01 7.119882417929292728e+01
5.381048768939393767e+01 5.622005208333333570e+01 7.105969854797979224e+01
5.319625946969696884e+01 5.527185921717171624e+01 7.035550820707071296e+01
5.264654356060606233e+01 5.421077967171716949e+01 6.970904356060606233e+01
5.234067234848485128e+01 5.358072916666666430e+01 6.939528093434343248e+01
5.219969223484848442e+01 5.324293718434343248e+01 6.923141571969696884e+01
5.205196496212121104e+01 5.293343592171716949e+01 6.903428819444444287e+01
5.186079545454545325e+01 5.256139520202020066e+01 6.879340277777777146e+01
5.173950441919191690e+01 5.231399936868687206e+01 6.865269886363635976e+01
5.180744949494949481e+01 5.235037878787878896e+01 6.869144570707071296e+01
5.188095801767676818e+01 5.246839488636363313e+01 6.878121054292928704e+01
5.189121685606060908e+01 5.248149463383838054e+01 6.876511205808080263e+01
5.185708648989898961e+01 5.243931502525252597e+01 6.873192866161616621e+01
5.183132102272727337e+01 5.243832859848485128e+01 6.872668087121212466e+01
5.189764835858586167e+01 5.252864583333333570e+01 6.879679608585858830e+01
5.204261363636363313e+01 5.273342803030303116e+01 6.889930555555555713e+01
5.212693339646464352e+01 5.291481218434343248e+01 6.902276672979797922e+01
5.221018781565656752e+01 5.313001104797979934e+01 6.915116003787878185e+01
5.232780934343434609e+01 5.333869949494949481e+01 6.927919823232323893e+01
5.240119949494949481e+01 5.348626893939393767e+01 6.939962121212121815e+01
5.248271780303030454e+01 5.363076073232323182e+01 6.949644886363635976e+01
5.257007575757575779e+01 5.379008838383838054e+01 6.956360479797979224e+01
5.266390467171716949e+01 5.396077967171716949e+01 6.968079229797979224e+01
5.283139993686868507e+01 5.417420296717171624e+01 6.980314867424242209e+01
5.288087910353535648e+01 5.435815183080808310e+01 6.991717960858585457e+01
5.296105587121212466e+01 5.456743213383838054e+01 7.000098642676768179e+01
5.308747632575757791e+01 5.479139046717171624e+01 7.014476799242424931e+01
5.315845959595959869e+01 5.496764520202020066e+01 7.026089015151515582e+01
5.322277462121212466e+01 5.514891098484848442e+01 7.036971275252524549e+01
5.336880523989898961e+01 5.532477114898989612e+01 7.047186710858585457e+01
5.347581281565656752e+01 5.550974589646464352e+01 7.060191761363635976e+01
5.358743686868687206e+01 5.571732954545454675e+01 7.074147727272726627e+01
5.368047664141413833e+01 5.587728851010101039e+01 7.081115845959595845e+01
5.335235164141413833e+01 5.551207386363636687e+01 7.049976325757575069e+01
5.266141887626262275e+01 5.430551609848485128e+01 6.962985321969696884e+01
5.209055397727272663e+01 5.325201231060606233e+01 6.895813604797979224e+01
5.181758996212121104e+01 5.266260258838384090e+01 6.868753945707071296e+01
5.176724273989898961e+01 5.239397885101010388e+01 6.855086016414141170e+01
5.156605113636363313e+01 5.209556502525252597e+01 6.840112058080808310e+01
5.135223327020202078e+01 5.173607165404040131e+01 6.814516256313130782e+01
5.130547664141413833e+01 5.154632260101010388e+01 6.801570391414141170e+01
5.140163352272727337e+01 5.163758680555555713e+01 6.811170296717172334e+01
5.149214804292929415e+01 5.179691445707070585e+01 6.821894728535353636e+01
5.152521306818182012e+01 5.184292140151514872e+01 6.823165246212121815e+01
5.149585700757575779e+01 5.183250473484848442e+01 6.822770675505050519e+01
5.157836174242424221e+01 5.190190972222222143e+01 6.827359532828282340e+01
5.163510101010101039e+01 5.203914141414141170e+01 6.837168560606060908e+01
5.177043876262626299e+01 5.223761047979797922e+01 6.848745265151515582e+01
5.185558712121212466e+01 5.244507575757575779e+01 6.866887626262625588e+01
5.196046401515151558e+01 5.262649936868687206e+01 6.879032512626262985e+01
5.202221433080808310e+01 5.284260574494949481e+01 6.888506155303029743e+01
5.214425505050505194e+01 5.304592803030303116e+01 6.899747474747475451e+01
5.221306818181817988e+01 5.319113005050505194e+01 6.910842803030303116e+01
5.232994002525252597e+01 5.338107638888888573e+01 6.921062184343433898e+01
5.244318181818182012e+01 5.355129419191919027e+01 6.932007575757575069e+01
5.260286458333333570e+01 5.379462594696969546e+01 6.948496685606060908e+01
5.260408775252525260e+01 5.401744002525252597e+01 6.958214962121212466e+01
5.278507733585858830e+01 5.422715435606060908e+01 6.972810132575757791e+01
5.287200126262626299e+01 5.445501893939393767e+01 6.986000631313130782e+01
5.297683869949494806e+01 5.464224273989898961e+01 6.997967960858585457e+01
5.304541508838384090e+01 5.483171559343434609e+01 7.008692392676768179e+01
5.314508364898989612e+01 5.500288036616161946e+01 7.020016571969696884e+01
5.322593118686868507e+01 5.520052083333333570e+01 7.030879103535353636e+01
5.338162878787878896e+01 5.542503156565656752e+01 7.044460227272726627e+01
5.346606691919191690e+01 5.562736742424242209e+01 7.056991792929292728e+01
5.337215909090909349e+01 5.551262626262626299e+01 7.041414141414141170e+01
5.276416508838384090e+01 5.450422190656565391e+01 6.970655776515151558e+01
5.212097537878787534e+01 5.334840593434343248e+01 6.894152462121212466e+01
5.177138573232323182e+01 5.269041982323232531e+01 6.856368371212121815e+01
5.172099905303030454e+01 5.243880208333333570e+01 6.845253314393939092e+01
5.157982165404040131e+01 5.222502367424242209e+01 6.838932291666667140e+01
5.147944286616161946e+01 5.193746054292929415e+01 6.822518150252524549e+01
5.143947285353535648e+01 5.176649305555555713e+01 6.811781881313130782e+01
5.153862847222222143e+01 5.184939236111111427e+01 6.821949968434343248e+01
5.157279829545454675e+01 5.196894728535353636e+01 6.830259627525252597e+01
5.156281565656565391e+01 5.200726010101010388e+01 6.829434974747475451e+01
5.155184659090909349e+01 5.200213068181817988e+01 6.825954861111111427e+01
5.158850220959595845e+01 5.199127998737373701e+01 6.828357796717172334e+01
5.164220328282828376e+01 5.212073863636363313e+01 6.839441287878787534e+01
5.176870265151514872e+01 5.230421401515151558e+01 6.852564709595959869e+01
5.189196654040404155e+01 5.254237689393939092e+01 6.865617108585858830e+01
5.199526515151514872e+01 5.277414772727272663e+01 6.878582702020202078e+01
5.210045770202020066e+01 5.295888573232323182e+01 6.892242739898989612e+01
5.217885890151514872e+01 5.308447758838384090e+01 6.902324021464646364e+01
5.220707070707070585e+01 5.323500631313131493e+01 6.905918560606060908e+01
5.230827809343434609e+01 5.342712279040404155e+01 6.918390940656566102e+01
5.242593907828283051e+01 5.357982165404040131e+01 6.930109690656566102e+01
5.244432607323232531e+01 5.375587910353535648e+01 6.937030460858585457e+01
5.256960227272727337e+01 5.393892045454545325e+01 6.950063131313130782e+01
5.267668876262626299e+01 5.411071654040404155e+01 6.961055871212121815e+01
5.280157039141413833e+01 5.431782670454545325e+01 6.974096433080808310e+01
5.285321969696969546e+01 5.446306818181817988e+01 6.982196969696970257e+01
5.295872790404040131e+01 5.466911300505050519e+01 6.996614583333332860e+01
5.304687500000000000e+01 5.487073863636363313e+01 7.007244318181818699e+01
5.297995580808080973e+01 5.476025883838384090e+01 6.997064393939393767e+01
5.234509154040404155e+01 5.378322285353535648e+01 6.921283143939393767e+01
5.171567234848485128e+01 5.264717487373737725e+01 6.849676452020202078e+01
5.140194917929292728e+01 5.196807922979797922e+01 6.810854640151515582e+01
5.131762941919191690e+01 5.169831123737373701e+01 6.798334911616161946e+01
5.126961016414141170e+01 5.152308238636363313e+01 6.792601799242424931e+01
5.110325915404040131e+01 5.127687026515151558e+01 6.776471748737374412e+01
5.110531092171716949e+01 5.118027935606060908e+01 6.771247632575757791e+01
5.121200284090909349e+01 5.130685763888888573e+01 6.781648516414141170e+01
5.126538825757575779e+01 5.141169507575757791e+01 6.790459280303029743e+01
5.124640940656565391e+01 5.141102430555555713e+01 6.787788036616161946e+01
5.123895202020202078e+01 5.135795454545454675e+01 6.784469696969696884e+01
5.119337910353535648e+01 5.137140940656565391e+01 6.783668718434343248e+01
5.130172821969696884e+01 5.147486584595959869e+01 6.792799084595959869e+01
5.142743844696969546e+01 5.167270359848485128e+01 6.808258364898989612e+01
5.149356849747474740e+01 5.185925662878787534e+01 6.819937657828282340e+01
5.162196180555555713e+01 5.208597695707070585e+01 6.832303503787878185e+01
5.171302872474747403e+01 5.224901357323232531e+01 6.844235321969696884e+01
5.175082859848485128e+01 5.240297506313131493e+01 6.854249526515151558e+01
5.185495580808080973e+01 5.254119318181817988e+01 6.862720959595959869e+01
5.187133049242424221e+01 5.270182291666666430e+01 6.870545296717172334e+01
5.202544981060606233e+01 5.284505208333333570e+01 6.880922506313130782e+01
5.206755050505050519e+01 5.303014520202020066e+01 6.891840277777777146e+01
5.217104640151514872e+01 5.322202493686868507e+01 6.902016256313130782e+01
5.222032828282828376e+01 5.341366792929292728e+01 6.913178661616161946e+01
5.240834122474747403e+01 5.362014678030303116e+01 6.929249526515151558e+01
5.241208964646464352e+01 5.370249368686868507e+01 6.929008838383838054e+01
5.195900410353535648e+01 5.304865056818182012e+01 6.880669981060606233e+01
5.130784406565656752e+01 5.183862058080808310e+01 6.797356376262625588e+01
5.086923926767676818e+01 5.094452335858586167e+01 6.743347537878787534e+01
5.071610637626262275e+01 5.055875157828283051e+01 6.721042455808080263e+01
5.057027304292929415e+01 5.033037405303030454e+01 6.704817708333332860e+01
5.039255839646464352e+01 5.002292455808080973e+01 6.681885258838383379e+01
5.029431029040404155e+01 4.977095170454545325e+01 6.661170296717172334e+01
5.029991319444444287e+01 4.980543718434343248e+01 6.665770991161616621e+01
5.048615056818182012e+01 5.001598011363636687e+01 6.683479324494949481e+01
5.049131944444444287e+01 5.010495580808080973e+01 6.689962121212121815e+01
5.051661142676767469e+01 5.012677556818182012e+01 6.690502683080808310e+01
5.052379261363636687e+01 5.017562342171716949e+01 6.693730271464646364e+01
5.061391256313131493e+01 5.026274463383838054e+01 6.701669034090909349e+01
5.071097695707070585e+01 5.045545296717171624e+01 6.717009943181818699e+01
5.090037089646464352e+01 5.070939867424242209e+01 6.738016887626262985e+01
5.098177083333333570e+01 5.092479482323232531e+01 6.752754103535353636e+01
5.109674873737373701e+01 5.113478535353535648e+01 6.769034090909090651e+01
5.120754419191919027e+01 5.134390782828283051e+01 6.783822601010101039e+01
5.133585858585858830e+01 5.150268308080808310e+01 6.794965277777777146e+01
5.139709595959595845e+01 5.169649621212121104e+01 6.807544191919191690e+01
5.151270517676767469e+01 5.191895517676767469e+01 6.823903093434343248e+01
5.161166351010101039e+01 5.213802083333333570e+01 6.838549558080808310e+01
5.174751420454545325e+01 5.235183869949494806e+01 6.852655460858585457e+01
5.184556502525252597e+01 5.257820391414141170e+01 6.866358901515151558e+01
5.197904829545454675e+01 5.280764678030303116e+01 6.879770359848484418e+01
5.201953125000000000e+01 5.301037720959595845e+01 6.891315498737374412e+01
5.219057765151514872e+01 5.326870265151514872e+01 6.908688446969696884e+01
5.231198705808080973e+01 5.350501104797979934e+01 6.921871054292928704e+01
5.233278093434343248e+01 5.365743371212121104e+01 6.924771148989898961e+01
5.192230902777777857e+01 5.310791508838384090e+01 6.884244791666667140e+01
5.132346906565656752e+01 5.194531250000000000e+01 6.800670770202020776e+01
5.085179924242424221e+01 5.102462121212121104e+01 6.748263888888888573e+01
5.066228693181817988e+01 5.064587279040404155e+01 6.724419981060606233e+01
5.055310921717171624e+01 5.042274305555555713e+01 6.709777462121212466e+01
5.044349747474747403e+01 5.016256313131312794e+01 6.690924873737374412e+01
5.030393781565656752e+01 4.991299715909090651e+01 6.672770675505050519e+01
5.032094381313131493e+01 4.989938446969696884e+01 6.672608901515151558e+01
5.045797821969696884e+01 5.010018150252525260e+01 6.688190498737374412e+01
5.057177241161615910e+01 5.026684816919191690e+01 6.701448074494949481e+01
5.056636679292929415e+01 5.033151830808080973e+01 6.705153093434343248e+01
5.062523674242424221e+01 5.036560921717171624e+01 6.708830492424242209e+01
5.062622316919191690e+01 5.044929766414141170e+01 6.715179135101010388e+01
5.077943497474747403e+01 5.063581123737373701e+01 6.729695391414141170e+01
5.085531092171716949e+01 5.086178188131312794e+01 6.745474273989898961e+01
5.100217013888888573e+01 5.111896306818182012e+01 6.763995422979797922e+01
5.114741161616161946e+01 5.135495580808080973e+01 6.779324494949494806e+01
5.127880366161615910e+01 5.158988320707070585e+01 6.793742108585858830e+01
5.136525410353535648e+01 5.177466066919191690e+01 6.808305713383838054e+01
5.147009154040404155e+01 5.197482638888888573e+01 6.821882891414141170e+01
5.157240372474747403e+01 5.218604008838384090e+01 6.834702493686869218e+01
5.168181818181817988e+01 5.238226010101010388e+01 6.845833333333332860e+01
5.176992582070707272e+01 5.267396622474747403e+01 6.861351799242424931e+01
5.191189236111111427e+01 5.291867897727272663e+01 6.875564236111111427e+01
5.202276672979797922e+01 5.315439551767676818e+01 6.890597380050505194e+01
5.216208964646464352e+01 5.337831439393939092e+01 6.904671717171717660e+01
5.224321338383838054e+01 5.359927398989898961e+01 6.918702651515151558e+01
5.235613952020202078e+01 5.382157512626262275e+01 6.932804608585858830e+01
5.250718118686868507e+01 5.403369633838384090e+01 6.941264204545454675e+01
5.258443813131312794e+01 5.425173611111111427e+01 6.955650252525252597e+01
5.262590751262626299e+01 5.446934185606060908e+01 6.964121685606060908e+01
5.275453756313131493e+01 5.463506155303030454e+01 6.975785195707071296e+01
5.236667455808080973e+01 5.410262784090909349e+01 6.931443339646465063e+01
5.173993844696969546e+01 5.302103061868687206e+01 6.856380208333332860e+01
5.129695391414141170e+01 5.222987689393939092e+01 6.806494633838383379e+01
5.111407039141413833e+01 5.185949337121212466e+01 6.786896306818181301e+01
5.104103535353535648e+01 5.160937500000000000e+01 6.776846590909090651e+01
5.094685132575757791e+01 5.134836647727272663e+01 6.756979955808080263e+01
5.078724747474747403e+01 5.107260101010101039e+01 6.740924873737374412e+01
5.078835227272727337e+01 5.101925505050505194e+01 6.736979166666667140e+01
5.087724905303030454e+01 5.115692077020202078e+01 6.750193339646465063e+01
5.101566445707070585e+01 5.127655460858586167e+01 6.760215435606060908e+01
5.098476957070707272e+01 5.133057133838384090e+01 6.762460542929292728e+01
5.101325757575757791e+01 5.138904671717171624e+01 6.766429924242424931e+01
5.102126736111111427e+01 5.148038983585858830e+01 6.768351483585858830e+01
5.119850852272727337e+01 5.165621054292929415e+01 6.779162720959595845e+01
5.121875000000000000e+01 5.181897095959595845e+01 6.792960858585858830e+01
5.135527146464646364e+01 5.204324494949494806e+01 6.805981691919191690e+01
5.144535195707070585e+01 5.227142518939393767e+01 6.817404513888888573e+01
5.161572758838384090e+01 5.249940814393939092e+01 6.834552556818181301e+01
5.169756155303030454e+01 5.267057291666666430e+01 6.842862215909090651e+01
5.179817708333333570e+01 5.284378945707070585e+01 6.856522253787878185e+01
5.185467960858586167e+01 5.304596748737373701e+01 6.867680713383838054e+01
5.198413825757575779e+01 5.323145517676767469e+01 6.881699810606060908e+01
5.202154356060606233e+01 5.339212436868687206e+01 6.889228219696970257e+01
5.211766098484848442e+01 5.359288194444444287e+01 6.900654987373737015e+01
5.220344065656565391e+01 5.378582702020202078e+01 6.910479797979797922e+01
5.232307449494949481e+01 5.396433080808080973e+01 6.920044191919191690e+01
5.236450441919191690e+01 5.411939709595959869e+01 6.929064078282827666e+01
5.247818023989898961e+01 5.432035195707070585e+01 6.942688604797979224e+01
5.256991792929292728e+01 5.449921085858586167e+01 6.954340277777777146e+01
5.264697758838384090e+01 5.470063920454545325e+01 6.961509627525252597e+01
5.255251736111111427e+01 5.452095170454545325e+01 6.947092013888888573e+01
5.192108585858586167e+01 5.356549873737373701e+01 6.876404671717172334e+01
5.140419823232323182e+01 5.265309343434343248e+01 6.820517676767676107e+01
5.125193339646464352e+01 5.214524147727272663e+01 6.794685132575757791e+01
5.108049242424242209e+01 5.191287878787878896e+01 6.782828282828282340e+01
5.103886521464646364e+01 5.168548768939393767e+01 6.769322127525252597e+01
5.087065972222222143e+01 5.143884154040404155e+01 6.753338068181818699e+01
5.092708333333333570e+01 5.137168560606060908e+01 6.752320075757575069e+01
5.100205176767676818e+01 5.149416035353535648e+01 6.764646464646465063e+01
5.107662563131312794e+01 5.153653724747474740e+01 6.769894255050505194e+01
5.101400726010101039e+01 5.153831281565656752e+01 6.768241003787878185e+01
5.106553819444444287e+01 5.152308238636363313e+01 6.764555713383838054e+01
5.104569128787878896e+01 5.155579229797979934e+01 6.768173926767676107e+01
5.111762152777777857e+01 5.169527304292929415e+01 6.778681344696970257e+01
5.121878945707070585e+01 5.188971748737373701e+01 6.792949021464646364e+01
5.138794191919191690e+01 5.209958964646464352e+01 6.807481060606060908e+01
5.143284406565656752e+01 5.229174558080808310e+01 6.814954229797979224e+01
5.155046559343434609e+01 5.244061710858586167e+01 6.826889993686869218e+01
5.157662563131312794e+01 5.258530618686868507e+01 6.834367108585858830e+01
5.171784248737373701e+01 5.271405460858586167e+01 6.844038036616161946e+01
5.172683869949494806e+01 5.287456597222222143e+01 6.854975536616161946e+01
5.179853219696969546e+01 5.301586174242424221e+01 6.863091856060606233e+01
5.188908617424242209e+01 5.315976167929292728e+01 6.872778566919191690e+01
5.203144728535353636e+01 5.338214172979797922e+01 6.884805082070707272e+01
5.214449179292929415e+01 5.358309659090909349e+01 6.896835542929292728e+01
5.224439709595959869e+01 5.379632260101010388e+01 6.909524936868686495e+01
5.230295138888888573e+01 5.390980113636363313e+01 6.917432133838383379e+01
5.203117108585858830e+01 5.349708017676767469e+01 6.883072916666667140e+01
5.136261047979797922e+01 5.240364583333333570e+01 6.808151830808080263e+01
5.090380366161615910e+01 5.150765467171716949e+01 6.754206123737374412e+01
5.074554135101010388e+01 5.102047821969696884e+01 6.734055397727273373e+01
5.064528093434343248e+01 5.077501578282828376e+01 6.718536931818181301e+01
5.048839962121212466e+01 5.050939078282828376e+01 6.701365214646465063e+01
5.034682765151514872e+01 5.025923295454545325e+01 6.684966856060606233e+01
5.037835385101010388e+01 5.025714172979797922e+01 6.687993213383838054e+01
5.052387152777777857e+01 5.044132733585858830e+01 6.701282354797979224e+01
5.054261363636363313e+01 5.051736111111111427e+01 6.707465277777777146e+01
5.057552083333333570e+01 5.050670770202020066e+01 6.705437184343433898e+01
5.056443339646464352e+01 5.049546243686868507e+01 6.704723011363635976e+01
5.061825284090909349e+01 5.054675662878787534e+01 6.708163667929292728e+01
5.072174873737373701e+01 5.074210858585858830e+01 6.722474747474747403e+01
5.086616161616161946e+01 5.094791666666666430e+01 6.738731060606060908e+01
5.095344065656565391e+01 5.115214646464646364e+01 6.754150883838383379e+01
5.102754103535353636e+01 5.131526199494949481e+01 6.763470643939393767e+01
5.107619160353535648e+01 5.145419034090909349e+01 6.773212594696970257e+01
5.117795138888888573e+01 5.160503472222222143e+01 6.779790088383838054e+01
5.121500157828283051e+01 5.174372632575757791e+01 6.790455334595959869e+01
5.133451704545454675e+01 5.192447916666666430e+01 6.799865845959595845e+01
5.143209438131312794e+01 5.213774463383838054e+01 6.811201862373737015e+01
5.151160037878787534e+01 5.229348169191919027e+01 6.821488320707071296e+01
5.164082228535353636e+01 5.249925031565656752e+01 6.835578440656566102e+01
5.176420454545454675e+01 5.275536616161615910e+01 6.850678661616161946e+01
5.191627209595959869e+01 5.296993371212121104e+01 6.870367739898989612e+01
5.201680871212121104e+01 5.318394886363636687e+01 6.881794507575757791e+01
5.186489898989898961e+01 5.301783459595959869e+01 6.866445707070707272e+01
5.125331439393939092e+01 5.195738636363636687e+01 6.786284722222222854e+01
5.061036142676767469e+01 5.077402935606060908e+01 6.711525410353534937e+01
5.028286773989898961e+01 5.008905460858586167e+01 6.668801294191919737e+01
5.012065972222222143e+01 4.979111426767676818e+01 6.650875946969696884e+01
4.999952651515151558e+01 4.952651515151514872e+01 6.634958964646465063e+01
4.982844065656565391e+01 4.920375631313131493e+01 6.611095328282827666e+01
4.976763731060606233e+01 4.902410827020202078e+01 6.598165246212121815e+01
4.984907670454545325e+01 4.917183554292929415e+01 6.611264993686869218e+01
5.009363162878787534e+01 4.939966066919191690e+01 6.631995738636364024e+01
5.007934816919191690e+01 4.947628630050505194e+01 6.635854640151515582e+01
5.011359690656565391e+01 4.951163983585858830e+01 6.636691130050505194e+01
5.011430713383838054e+01 4.956474905303030454e+01 6.638498263888888573e+01
5.025670770202020066e+01 4.974913194444444287e+01 6.656257891414141170e+01
5.039303188131312794e+01 4.996768465909090651e+01 6.675351167929292728e+01
5.050303819444444287e+01 5.015944602272727337e+01 6.685720486111111427e+01
5.062551294191919027e+01 5.040565814393939092e+01 6.705338541666667140e+01
5.074218750000000000e+01 5.057757260101010388e+01 6.718189709595959869e+01
5.078038194444444287e+01 5.075560290404040131e+01 6.731399936868686495e+01
5.091351010101010388e+01 5.091429924242424221e+01 6.738289141414141170e+01
5.097443181818182012e+01 5.108696338383838054e+01 6.751025883838383379e+01
5.108136047979797922e+01 5.125828598484848442e+01 6.766690340909090651e+01
5.114307133838384090e+01 5.148571654040404155e+01 6.777501578282827666e+01
5.131912878787878896e+01 5.169049873737373701e+01 6.791193181818181301e+01
5.139772727272727337e+01 5.191256313131312794e+01 6.804703282828282340e+01
5.149116161616161946e+01 5.212042297979797922e+01 6.815340909090909349e+01
5.157792771464646364e+01 5.230788352272727337e+01 6.828357796717172334e+01
5.168631628787878896e+01 5.248476957070707272e+01 6.842274305555555713e+01
5.175098642676767469e+01 5.267191445707070585e+01 6.850635258838383379e+01
5.190360637626262275e+01 5.287788036616161946e+01 6.865297506313130782e+01
5.198579545454545325e+01 5.309517045454545325e+01 6.877004419191919737e+01
5.203452493686868507e+01 5.318967013888888573e+01 6.881924715909090651e+01
5.151976799242424221e+01 5.246752683080808310e+01 6.825240688131313505e+01
5.078578756313131493e+01 5.106104008838384090e+01 6.727537089646465063e+01
5.024952651515151558e+01 5.005855429292929415e+01 6.660858585858585457e+01
5.007670454545454675e+01 4.963667929292929415e+01 6.637784090909090651e+01
4.999921085858586167e+01 4.942140151515151558e+01 6.624084595959595845e+01
4.982804608585858830e+01 4.912807765151514872e+01 6.602470012626262985e+01
4.965147569444444287e+01 4.884876104797979934e+01 6.577110953282827666e+01
4.969811395202020066e+01 4.884615688131312794e+01 6.580164930555555713e+01
4.986706912878787534e+01 4.909418402777777857e+01 6.601826862373737015e+01
4.995845170454545325e+01 4.926779513888888573e+01 6.614311079545454675e+01
4.996401515151514872e+01 4.931865530303030454e+01 6.616808712121212466e+01
5.001870265151514872e+01 4.938218118686868507e+01 6.621614583333332860e+01
5.009102746212121104e+01 4.949648832070707272e+01 6.631893150252524549e+01
5.023417771464646364e+01 4.969266887626262275e+01 6.646902619949494806e+01
5.033688446969696884e+01 4.991469381313131493e+01 6.664496527777777146e+01
5.047427398989898961e+01 5.010069444444444287e+01 6.677335858585858830e+01
5.057690183080808310e+01 5.032516571969696884e+01 6.694637784090909349e+01
5.063537720959595845e+01 5.052616003787878896e+01 6.706498579545454675e+01
5.070651830808080973e+01 5.068473800505050519e+01 6.714985795454545325e+01
5.082366635101010388e+01 5.087859059343434609e+01 6.729194286616161946e+01
5.089062500000000000e+01 5.105160984848485128e+01 6.740609217171717660e+01
5.105034722222222143e+01 5.127146464646464352e+01 6.754277146464646364e+01
5.109240845959595845e+01 5.147056502525252597e+01 6.768379103535353636e+01
5.127059659090909349e+01 5.170336174242424221e+01 6.784856376262625588e+01
5.138865214646464352e+01 5.196772411616161946e+01 6.801601957070707272e+01
5.151262626262626299e+01 5.216950757575757791e+01 6.812452651515151558e+01
5.162413194444444287e+01 5.237271148989898961e+01 6.825591856060606233e+01
5.170261205808080973e+01 5.254225852272727337e+01 6.834986584595959869e+01
5.178073705808080973e+01 5.276116635101010388e+01 6.848212594696970257e+01
5.191126104797979934e+01 5.296823705808080973e+01 6.862290877525252597e+01
5.204904513888888573e+01 5.320213857323232531e+01 6.877647569444444287e+01
5.199443655303030454e+01 5.319219539141413833e+01 6.873149463383838054e+01
5.138237847222222143e+01 5.225390625000000000e+01 6.800501104797979224e+01
5.068686868686868507e+01 5.090845959595959869e+01 6.706991792929292728e+01
5.028192077020202078e+01 5.007658617424242209e+01 6.658068970959595845e+01
5.014733270202020066e+01 4.979158775252525260e+01 6.640380366161616621e+01
5.009244791666666430e+01 4.967088857323232531e+01 6.633976483585858830e+01
4.998764993686868507e+01 4.944945549242424221e+01 6.616062973484848442e+01
4.990565814393939092e+01 4.932200915404040131e+01 6.611036142676768179e+01
5.005334595959595845e+01 4.943292297979797922e+01 6.621417297979797922e+01
5.018978851010101039e+01 4.965269886363636687e+01 6.638060290404040131e+01
5.017266414141413833e+01 4.973942550505050519e+01 6.641714015151515582e+01
5.016836332070707272e+01 4.973622948232323182e+01 6.642941130050505194e+01
5.019420770202020066e+01 4.977596275252525260e+01 6.644799558080808310e+01
5.029845328282828376e+01 4.991003787878787534e+01 6.656707702020202078e+01
5.044290561868687206e+01 5.013766571969696884e+01 6.673646622474747403e+01
5.059173768939393767e+01 5.039129577020202078e+01 6.694211647727273373e+01
5.070482165404040131e+01 5.064626736111111427e+01 6.710901988636364024e+01
5.082954545454545325e+01 5.086647727272727337e+01 6.726672979797979224e+01
5.091299715909090651e+01 5.106735321969696884e+01 6.737322443181818699e+01
5.101665088383838054e+01 5.122151199494949481e+01 6.749297664141414543e+01
5.109169823232323182e+01 5.137342171717171624e+01 6.758459595959595845e+01
5.117250631313131493e+01 5.159296085858586167e+01 6.771022727272726627e+01
5.132792771464646364e+01 5.178468276515151558e+01 6.787890625000000000e+01
5.140147569444444287e+01 5.199348958333333570e+01 6.799522569444444287e+01
5.156364425505050519e+01 5.220379577020202078e+01 6.814271622474747403e+01
5.161975220959595845e+01 5.243714488636363313e+01 6.825548453282827666e+01
5.179087752525252597e+01 5.266761363636363313e+01 6.841240530303029743e+01
5.188454861111111427e+01 5.287507891414141170e+01 6.855121527777777146e+01
5.175958806818182012e+01 5.275879892676767469e+01 6.844093276515151558e+01
5.113095801767676818e+01 5.172092013888888573e+01 6.767988478535353636e+01
5.047273516414141170e+01 5.044985006313131493e+01 6.678318339646465063e+01
5.010610006313131493e+01 4.976187657828283051e+01 6.637930082070707272e+01
5.006987847222222143e+01 4.953736584595959869e+01 6.626968907828282340e+01
4.997435290404040131e+01 4.941422032828283051e+01 6.618757891414141170e+01
4.987673611111111427e+01 4.923626893939393767e+01 6.604687500000000000e+01
4.987350063131312794e+01 4.919594381313131493e+01 6.602501578282827666e+01
5.005129419191919027e+01 4.940183080808080973e+01 6.622553661616161946e+01
5.013695549242424221e+01 4.960207544191919027e+01 6.634986584595959869e+01
5.014851641414141170e+01 4.964172979797979934e+01 6.637531565656566102e+01
5.017254577020202078e+01 4.963955965909090651e+01 6.639539930555555713e+01
5.020691287878787534e+01 4.968781565656565391e+01 6.644412878787878185e+01
5.030583175505050519e+01 4.988127367424242209e+01 6.657982165404040131e+01
5.049333175505050519e+01 5.012022569444444287e+01 6.678768150252524549e+01
5.062582859848485128e+01 5.035546875000000000e+01 6.696579071969696884e+01
5.074270044191919027e+01 5.056182922979797922e+01 6.711612215909090651e+01
5.085905934343434609e+01 5.076231060606060908e+01 6.726262626262625588e+01
5.091792929292929415e+01 5.087089646464646364e+01 6.736458333333332860e+01
5.092589962121212466e+01 5.100086805555555713e+01 6.743110795454545325e+01
5.102260890151514872e+01 5.113340435606060908e+01 6.753460385101010388e+01
5.108794981060606233e+01 5.132516571969696884e+01 6.764224273989898961e+01
5.117720170454545325e+01 5.147202493686868507e+01 6.775595801767676107e+01
5.137058080808080973e+01 5.172064393939393767e+01 6.794681186868686495e+01
5.147261679292929415e+01 5.193284406565656752e+01 6.805200441919191690e+01
5.157745422979797922e+01 5.219756155303030454e+01 6.822155145202020776e+01
5.174546243686868507e+01 5.243990688131312794e+01 6.837503945707071296e+01
5.150883838383838054e+01 5.220075757575757791e+01 6.816287878787878185e+01
5.080295138888888573e+01 5.093694760101010388e+01 6.726554608585858830e+01
5.012211963383838054e+01 4.969866635101010388e+01 6.640068655303029743e+01
4.983668718434343248e+01 4.908984375000000000e+01 6.600114425505050519e+01
4.966721906565656752e+01 4.883514835858586167e+01 6.581841856060606233e+01
4.959398674242424221e+01 4.867653093434343248e+01 6.572451073232323893e+01
4.946259469696969546e+01 4.842660984848485128e+01 6.550978535353534937e+01
4.943572443181817988e+01 4.833502998737373701e+01 6.545545296717172334e+01
4.959501262626262275e+01 4.853661616161615910e+01 6.567582070707071296e+01
4.978444602272727337e+01 4.879580965909090651e+01 6.586888415404040131e+01
4.983877840909090651e+01 4.892116477272727337e+01 6.596314709595959869e+01
4.985677083333333570e+01 4.894483901515151558e+01 6.599013573232323893e+01
4.987681502525252597e+01 4.901759785353535648e+01 6.604616477272726627e+01
4.997159090909090651e+01 4.916729797979797922e+01 6.614709595959595845e+01
5.011939709595959869e+01 4.940995896464646364e+01 6.634651199494949481e+01
5.025489267676767469e+01 4.963636363636363313e+01 6.652651515151515582e+01
5.040510574494949481e+01 4.986896306818182012e+01 6.671129261363635976e+01
5.048559816919191690e+01 5.006419665404040131e+01 6.686122948232323893e+01
5.058080808080808310e+01 5.020612373737373701e+01 6.695517676767676107e+01
5.069479955808080973e+01 5.042286142676767469e+01 6.711998895202020776e+01
5.079316603535353636e+01 5.060645517676767469e+01 6.727075441919191690e+01
5.092290088383838054e+01 5.081399936868687206e+01 6.743252840909090651e+01
5.106660353535353636e+01 5.104166666666666430e+01 6.761000631313130782e+01
5.115384311868687206e+01 5.129099589646464352e+01 6.777963226010101039e+01
5.129056186868687206e+01 5.154908459595959869e+01 6.792945075757575069e+01
5.141236584595959869e+01 5.175343276515151558e+01 6.807050978535353636e+01
5.148224431818182012e+01 5.194894255050505194e+01 6.818884154040404155e+01
5.156190814393939092e+01 5.212851167929292728e+01 6.830748895202020776e+01
5.168864425505050519e+01 5.235546875000000000e+01 6.846042455808080263e+01
5.185381155303030454e+01 5.260586332070707272e+01 6.862227746212121815e+01
5.187582859848485128e+01 5.278523516414141170e+01 6.871768465909090651e+01
5.150386679292929415e+01 5.218410669191919027e+01 6.818915719696970257e+01
5.071330492424242209e+01 5.082615214646464352e+01 6.725702335858585457e+01
5.021129261363636687e+01 4.983124210858586167e+01 6.659150094696970257e+01
4.998717645202020066e+01 4.944061710858586167e+01 6.631908933080808310e+01
4.993126578282828376e+01 4.926980744949494806e+01 6.620620265151515582e+01
4.978077651515151558e+01 4.902541035353535648e+01 6.603393308080808310e+01
4.966481218434343248e+01 4.878002683080808310e+01 6.583794981060606233e+01
4.966141887626262275e+01 4.877316130050505194e+01 6.585949337121212466e+01
4.985929608585858830e+01 4.902327967171716949e+01 6.608025568181818699e+01
5.001077178030303116e+01 4.927260890151514872e+01 6.627623895202020776e+01
5.002872474747474740e+01 4.935905934343434609e+01 6.632528409090909349e+01
5.004987373737373701e+01 4.942518939393939092e+01 6.636979166666667140e+01
5.009745896464646364e+01 4.952012310606060908e+01 6.643284406565656752e+01
5.017258522727272663e+01 4.972593118686868507e+01 6.657536300505050519e+01
5.035215435606060908e+01 4.994353693181817988e+01 6.676771622474747403e+01
5.044495738636363313e+01 5.016623263888888573e+01 6.690628945707071296e+01
5.057599431818182012e+01 5.037065972222222143e+01 6.709651199494949481e+01
5.070273042929292728e+01 5.057078598484848442e+01 6.723035037878787534e+01
5.078878630050505194e+01 5.077900094696969546e+01 6.738663983585858830e+01
5.088178661616161946e+01 5.095738636363636687e+01 6.753440656565656752e+01
5.100670770202020066e+01 5.117716224747474740e+01 6.766879734848484418e+01
5.110570549242424221e+01 5.140431660353535648e+01 6.779967645202020776e+01
5.124636994949494806e+01 5.166003787878787534e+01 6.794712752525252597e+01
5.137152777777777857e+01 5.199494949494949481e+01 6.810953282828282340e+01
5.151716382575757791e+01 5.222786458333333570e+01 6.828263099747475451e+01
5.162634154040404155e+01 5.248918876262626299e+01 6.843757891414141170e+01
5.178488005050505194e+01 5.274368686868687206e+01 6.857922979797979224e+01
5.190589488636363313e+01 5.299222695707070585e+01 6.872896938131313505e+01
5.201929450757575779e+01 5.325493213383838054e+01 6.887993213383838054e+01
5.214204545454545325e+01 5.351846590909090651e+01 6.904087752525252597e+01
5.222577335858586167e+01 5.373445391414141170e+01 6.915680239898989612e+01
5.223054766414141170e+01 5.386596433080808310e+01 6.918840751262625588e+01
5.181553819444444287e+01 5.323031092171716949e+01 6.867443970959595845e+01
5.119503630050505194e+01 5.206908933080808310e+01 6.786012468434343248e+01
5.077836963383838054e+01 5.129131155303030454e+01 6.737969539141414543e+01
5.066429924242424221e+01 5.098658459595959869e+01 6.720770202020202078e+01
5.058929135101010388e+01 5.083566130050505194e+01 6.714532039141414543e+01
5.047577335858586167e+01 5.058451704545454675e+01 6.702438446969696884e+01
5.036363636363636687e+01 5.038052398989898961e+01 6.689188762626262985e+01
5.041757417929292728e+01 5.047107796717171624e+01 6.695845170454545325e+01
5.063498263888888573e+01 5.065881470959595845e+01 6.712898516414141170e+01
5.063332544191919027e+01 5.077915877525252597e+01 6.719440498737374412e+01
5.066153724747474740e+01 5.081463068181817988e+01 6.722656250000000000e+01
5.067889835858586167e+01 5.088675820707070585e+01 6.721788194444444287e+01
5.073524305555555713e+01 5.100560290404040131e+01 6.731778724747475451e+01
5.086414930555555713e+01 5.118753945707070585e+01 6.747983743686869218e+01
5.101416508838384090e+01 5.142593907828283051e+01 6.760254892676768179e+01
5.108704229797979934e+01 5.169136679292929415e+01 6.774487058080808310e+01
5.123757102272727337e+01 5.189445233585858830e+01 6.789003314393939092e+01
5.132769097222222143e+01 5.210183869949494806e+01 6.803697127525252597e+01
5.137661773989898961e+01 5.225508996212121104e+01 6.811588541666667140e+01
5.150532670454545325e+01 5.246176609848485128e+01 6.821018781565656752e+01
5.156920770202020066e+01 5.263154987373737725e+01 6.834824810606060908e+01
5.166552241161615910e+01 5.284497316919191690e+01 6.845718907828282340e+01
5.181210542929292728e+01 5.306210542929292728e+01 6.859745896464646364e+01
5.190747316919191690e+01 5.323086332070707272e+01 6.871886837121212466e+01
5.200962752525252597e+01 5.342676767676767469e+01 6.882433712121212466e+01
5.208005839646464352e+01 5.363782354797979934e+01 6.894606218434343248e+01
5.219637784090909349e+01 5.384599905303030454e+01 6.908747632575757791e+01
5.234749842171716949e+01 5.409134311868687206e+01 6.923133680555555713e+01
5.233629261363636687e+01 5.416062973484848442e+01 6.923938604797979224e+01
5.187113320707070585e+01 5.347956123737373701e+01 6.870020517676768179e+01
5.121669823232323182e+01 5.237342171717171624e+01 6.795138888888888573e+01
5.087752525252525260e+01 5.161126893939393767e+01 6.750378787878787534e+01
5.074530460858586167e+01 5.127592329545454675e+01 6.732058869949494806e+01
5.067862215909090651e+01 5.107035195707070585e+01 6.722597064393939092e+01
5.055184659090909349e+01 5.080468750000000000e+01 6.707047032828282340e+01
5.046646148989898961e+01 5.063470643939393767e+01 6.697529987373737015e+01
5.058581912878787534e+01 5.071334438131312794e+01 6.707193023989898961e+01
5.065419823232323182e+01 5.083885732323232531e+01 6.716714015151515582e+01
5.068059501262626299e+01 5.087788036616161946e+01 6.717475536616161946e+01
5.061395202020202078e+01 5.085211489898989612e+01 6.716745580808080263e+01
5.064125631313131493e+01 5.085101010101010388e+01 6.714977904040404155e+01
5.066690340909090651e+01 5.092653093434343248e+01 6.720935921717172334e+01
5.078176294191919027e+01 5.110199652777777857e+01 6.732311395202020776e+01
5.089279513888888573e+01 5.129951862373737725e+01 6.745766256313130782e+01
5.104399463383838054e+01 5.152221433080808310e+01 6.763537720959595845e+01
5.110456123737373701e+01 5.170446654040404155e+01 6.773476957070707272e+01
5.118304135101010388e+01 5.184986584595959869e+01 6.782919034090909349e+01
5.126621685606060908e+01 5.200185448232323182e+01 6.791536458333332860e+01
5.132323232323232531e+01 5.217518939393939092e+01 6.801688762626262985e+01
5.142223011363636687e+01 5.235373263888888573e+01 6.814019097222222854e+01
5.156167140151514872e+01 5.253136837121212466e+01 6.829241635101010388e+01
5.163660037878787534e+01 5.273697916666666430e+01 6.838439078282827666e+01
5.177509469696969546e+01 5.297664141414141170e+01 6.853630050505050519e+01
5.185385101010101039e+01 5.314946338383838054e+01 6.866240530303029743e+01
5.176128472222222143e+01 5.303259154040404155e+01 6.853574810606060908e+01
5.119811395202020066e+01 5.207311395202020066e+01 6.783495107323231821e+01
5.055827809343434609e+01 5.091307607323232531e+01 6.708132102272726627e+01
5.021393623737373701e+01 5.020146780303030454e+01 6.665159406565656752e+01
5.004640151515151558e+01 4.982039141414141170e+01 6.641051136363635976e+01
4.986545138888888573e+01 4.950197285353535648e+01 6.620935921717172334e+01
4.970651830808080973e+01 4.917432133838384090e+01 6.596283143939393767e+01
4.963178661616161946e+01 4.905650252525252597e+01 6.586205808080808310e+01
4.978898358585858830e+01 4.922048611111111427e+01 6.603551136363635976e+01
4.985254892676767469e+01 4.935239109848485128e+01 6.614011205808080263e+01
4.989934501262626299e+01 4.938072127525252597e+01 6.615534248737374412e+01
4.987219854797979934e+01 4.936604324494949481e+01 6.613829703282827666e+01
4.990751262626262275e+01 4.936584595959595845e+01 6.614914772727273373e+01
4.998630839646464352e+01 4.950603693181817988e+01 6.625398516414141170e+01
5.015238320707070585e+01 4.969641729797979934e+01 6.642132260101010388e+01
5.023090277777777857e+01 4.990088383838384090e+01 6.657323232323231821e+01
5.031451231060606233e+01 5.008360953282828376e+01 6.670182291666667140e+01
5.040751262626262275e+01 5.026136363636363313e+01 6.686158459595959869e+01
5.052016256313131493e+01 5.040400094696969546e+01 6.697896938131313505e+01
5.061099273989898961e+01 5.057469223484848442e+01 6.707595486111111427e+01
5.065794665404040131e+01 5.074491003787878896e+01 6.715447443181818699e+01
5.076771622474747403e+01 5.090676294191919027e+01 6.731222380050505194e+01
5.087401357323232531e+01 5.110207544191919027e+01 6.744203756313130782e+01
5.097383996212121104e+01 5.130433238636363313e+01 6.756064551767676107e+01
5.107544191919191690e+01 5.148626893939393767e+01 6.770407196969696884e+01
5.118824968434343248e+01 5.169487847222222143e+01 6.781940498737374412e+01
5.128416982323232531e+01 5.191122159090909349e+01 6.795478219696970257e+01
5.141347064393939092e+01 5.214074337121212466e+01 6.806372316919191690e+01
5.130741003787878896e+01 5.202836963383838054e+01 6.793888099747475451e+01
5.059229008838384090e+01 5.097912720959595845e+01 6.716946811868686495e+01
5.000895675505050519e+01 4.980535827020202078e+01 6.638206281565656752e+01
4.966694286616161946e+01 4.915336963383838054e+01 6.595513731060606233e+01
4.956104008838384090e+01 4.884655145202020066e+01 6.574301609848484418e+01
4.932090435606060908e+01 4.856253945707070585e+01 6.552024147727273373e+01
4.913900726010101039e+01 4.823228377525252597e+01 6.526463857323231821e+01
4.906897095959595845e+01 4.807670454545454675e+01 6.514062500000000000e+01
4.920312500000000000e+01 4.825710227272727337e+01 6.531250000000000000e+01
4.937653882575757791e+01 4.851700599747474740e+01 6.554194286616161946e+01
4.946318655303030454e+01 4.861833175505050519e+01 6.560444286616161946e+01
4.946906565656565391e+01 4.867155934343434609e+01 6.565482954545454675e+01
4.951598011363636687e+01 4.876108743686868507e+01 6.571657986111111427e+01
4.963644255050505194e+01 4.894720643939393767e+01 6.586671401515151558e+01
4.976953125000000000e+01 4.917199337121212466e+01 6.601811079545454675e+01
4.988111584595959869e+01 4.941015625000000000e+01 6.621397569444444287e+01
5.004150883838384090e+01 4.962610479797979934e+01 6.639946338383838054e+01
5.015254103535353636e+01 4.987492108585858830e+01 6.655689709595959869e+01
5.027584438131312794e+01 5.006766887626262275e+01 6.670261205808080263e+01
5.036600378787878896e+01 5.029782196969696884e+01 6.686126893939393767e+01
5.047510258838384090e+01 5.050887784090909349e+01 6.701187657828282340e+01
5.058779198232323182e+01 5.074782986111111427e+01 6.720853061868686495e+01
5.074045138888888573e+01 5.097814078282828376e+01 6.733388573232323893e+01
5.077256944444444287e+01 5.121985479797979934e+01 6.744886363636364024e+01
5.096764520202020066e+01 5.148200757575757791e+01 6.764678030303029743e+01
5.104734848484848442e+01 5.173737373737373701e+01 6.776025883838383379e+01
5.122443181818182012e+01 5.199558080808080973e+01 6.794649621212121815e+01
5.131885258838384090e+01 5.220316445707070585e+01 6.807295612373737015e+01
5.141137941919191690e+01 5.240680239898989612e+01 6.819231376262625588e+01
5.155405618686868507e+01 5.261860795454545325e+01 6.834272411616161946e+01
5.168588226010101039e+01 5.286785827020202078e+01 6.847328756313130782e+01
5.176503314393939092e+01 5.311446496212121104e+01 6.862503945707071296e+01
5.175639204545454675e+01 5.312113320707070585e+01 6.856541982323231821e+01
5.115924873737373701e+01 5.227525252525252597e+01 6.790467171717172334e+01
5.057863794191919027e+01 5.118454071969696884e+01 6.714129577020202078e+01
5.022979797979797922e+01 5.051152146464646364e+01 6.673074494949494806e+01
5.010191761363636687e+01 5.019187973484848442e+01 6.656798453282827666e+01
4.996271306818182012e+01 4.989642518939393767e+01 6.639468907828282340e+01
4.981553819444444287e+01 4.959426294191919027e+01 6.614618844696970257e+01
4.963462752525252597e+01 4.937089646464646364e+01 6.599510732323231821e+01
4.973611111111111427e+01 4.945643939393939092e+01 6.606881313131313505e+01
4.991579861111111427e+01 4.968252840909090651e+01 6.627154356060606233e+01
4.995651830808080973e+01 4.978306502525252597e+01 6.631620896464646364e+01
4.996519886363636687e+01 4.984130366161615910e+01 6.636497790404040131e+01
4.999427872474747403e+01 4.989421559343434609e+01 6.639074337121212466e+01
5.006786616161615910e+01 5.000426136363636687e+01 6.649526515151515582e+01
5.022111742424242209e+01 5.022143308080808310e+01 6.661710858585858830e+01
5.029032512626262275e+01 5.041564078282828376e+01 6.674502840909090651e+01
5.043706597222222143e+01 5.066481218434343248e+01 6.690155460858585457e+01
5.052911931818182012e+01 5.088628472222222143e+01 6.703401199494949481e+01
5.063829703282828376e+01 5.109015940656565391e+01 6.716512784090909349e+01
5.073244160353535648e+01 5.129288983585858830e+01 6.727710700757575069e+01
5.085278566919191690e+01 5.148394097222222143e+01 6.742238794191919737e+01
5.092365056818182012e+01 5.168059501262626299e+01 6.752418718434343248e+01
5.100394570707070585e+01 5.189662247474747403e+01 6.765277777777777146e+01
5.111896306818182012e+01 5.213032670454545325e+01 6.780930397727273373e+01
5.125702335858586167e+01 5.233909406565656752e+01 6.793047664141414543e+01
5.134493371212121104e+01 5.254774305555555713e+01 6.807378472222222854e+01
5.146148989898989612e+01 5.273658459595959869e+01 6.816666666666667140e+01
5.155342487373737725e+01 5.292100694444444287e+01 6.829221906565656752e+01
5.170328282828283051e+01 5.311647727272727337e+01 6.842487373737374412e+01
5.176586174242424221e+01 5.336134785353535648e+01 6.854427083333332860e+01
5.187926136363636687e+01 5.355697601010101039e+01 6.865435606060606233e+01
5.162989267676767469e+01 5.324416035353535648e+01 6.841351010101010388e+01
5.107279829545454675e+01 5.224309501262626299e+01 6.766039299242424931e+01
5.052103061868687206e+01 5.130243844696969546e+01 6.704154829545454675e+01
5.033866003787878896e+01 5.081167140151514872e+01 6.675722064393939092e+01
5.021602746212121104e+01 5.056309185606060908e+01 6.663490372474747403e+01
5.012894570707070585e+01 5.028661616161615910e+01 6.650473484848484418e+01
4.989030934343434609e+01 4.998342803030303116e+01 6.629987373737374412e+01
4.993860479797979934e+01 4.995580808080808310e+01 6.628582702020202078e+01
5.007844065656565391e+01 5.008443813131312794e+01 6.641019570707071296e+01
5.012160669191919027e+01 5.014780618686868507e+01 6.646504103535353636e+01
5.008917297979797922e+01 5.015940656565656752e+01 6.642724116161616621e+01
5.010290404040404155e+01 5.014520202020202078e+01 6.643071338383838054e+01
5.010791508838384090e+01 5.016836332070707272e+01 6.646776357323231821e+01
5.024356849747474740e+01 5.029991319444444287e+01 6.658132102272726627e+01
5.031936553030303116e+01 5.048082386363636687e+01 6.671898674242424931e+01
5.042459753787878896e+01 5.065644728535353636e+01 6.683589804292928704e+01
5.050366950757575779e+01 5.084205334595959869e+01 6.692443970959595845e+01
5.055243844696969546e+01 5.096721117424242209e+01 6.702276672979797922e+01
5.061122948232323182e+01 5.112290877525252597e+01 6.713569286616161946e+01
5.071989425505050519e+01 5.122668087121212466e+01 6.722257733585858830e+01
5.074242424242424221e+01 5.139709595959595845e+01 6.732970328282827666e+01
5.090735479797979934e+01 5.155744949494949481e+01 6.741398358585858830e+01
5.090017361111111427e+01 5.173666351010101039e+01 6.750607638888888573e+01
5.105934343434343248e+01 5.194113005050505194e+01 6.766477272727273373e+01
5.115187026515151558e+01 5.212993213383838054e+01 6.778997001262625588e+01
5.131916824494949481e+01 5.233431976010101039e+01 6.793343592171717660e+01
5.125173611111111427e+01 5.235779671717171624e+01 6.789520202020202078e+01
5.084580176767676818e+01 5.167282196969696884e+01 6.739188762626262985e+01
5.021902619949494806e+01 5.055472695707070585e+01 6.662401357323231821e+01
4.982950599747474740e+01 4.972360321969696884e+01 6.614311079545454675e+01
4.963229955808080973e+01 4.935830965909090651e+01 6.591544349747475451e+01
4.952335858585858830e+01 4.903708964646464352e+01 6.573184974747475451e+01
4.932193023989898961e+01 4.868509311868687206e+01 6.548133680555555713e+01
4.923843907828283051e+01 4.848638731060606233e+01 6.534307922979797922e+01
4.933605587121212466e+01 4.857500789141413833e+01 6.542475536616161946e+01
4.949427872474747403e+01 4.877521306818182012e+01 6.560191761363635976e+01
4.950643150252525260e+01 4.883660827020202078e+01 6.563837594696970257e+01
4.951152146464646364e+01 4.884438131313131493e+01 6.563541666666667140e+01
4.950213068181817988e+01 4.885440340909090651e+01 6.563833648989898961e+01
4.957674400252525260e+01 4.898062657828283051e+01 6.573599273989898961e+01
4.967514993686868507e+01 4.914705650252525260e+01 6.587985321969696884e+01
