5.583392518939393767e+01 6.331672190656565391e+01 6.622044665404040131e+01
5.558412247474747403e+01 6.309390782828283051e+01 6.593134469696970257e+01
5.491990214646464352e+01 6.202817234848485128e+01 6.508009785353534937e+01
5.413372001262626299e+01 6.105449021464646364e+01 6.458526672979797922e+01
5.409520991161615910e+01 6.062898516414141170e+01 6.447557607323231821e+01
5.409836647727272663e+01 6.030859375000000000e+01 6.440707859848484418e+01
5.378444602272727337e+01 5.982942708333333570e+01 6.414287405303029743e+01
5.358708175505050519e+01 5.932855902777777857e+01 6.382855902777777857e+01
5.346523832070707272e+01 5.915952493686868507e+01 6.381025094696969546e+01
5.371717171717171624e+01 5.945549242424242209e+01 6.411158459595959869e+01
5.393773674242424221e+01 5.982788825757575779e+01 6.437997159090909349e+01
5.392061237373737725e+01 5.981155303030303116e+01 6.431186868686869218e+01
5.389705650252525260e+01 5.979951862373737725e+01 6.428342013888888573e+01
5.399834280303030454e+01 5.994610164141413833e+01 6.439622790404040131e+01
5.412776199494949481e+01 6.022056502525252597e+01 6.457015467171717660e+01
5.433759469696969546e+01 6.047364267676767469e+01 6.472916666666667140e+01
5.441994160353535648e+01 6.071602746212121104e+01 6.483723958333332860e+01
5.458009785353535648e+01 6.094720643939393767e+01 6.496172664141414543e+01
5.463107638888888573e+01 6.116153724747474740e+01 6.506352588383838054e+01
5.476613794191919027e+01 6.138135258838384090e+01 6.514334753787878185e+01
5.487393465909090651e+01 6.161115056818182012e+01 6.527118844696970257e+01
5.501448074494949481e+01 6.182603377525252597e+01 6.539484690656566102e+01
5.510771780303030454e+01 6.207425820707070585e+01 6.549818497474747403e+01
5.520884627525252597e+01 6.231664299242424221e+01 6.558952809343433898e+01
5.535921717171716949e+01 6.258791035353535648e+01 6.576751893939393767e+01
5.557615214646464352e+01 6.284461805555555713e+01 6.590364583333332860e+01
5.568663194444444287e+01 6.311355744949494806e+01 6.603543244949494806e+01
5.582903251262626299e+01 6.334197443181817988e+01 6.613332544191919737e+01
5.592586016414141170e+01 6.356553819444444287e+01 6.625430082070707272e+01
5.607702020202020066e+01 6.380634469696969546e+01 6.638746843434343248e+01
5.586020359848485128e+01 6.372668087121212466e+01 6.625903566919191690e+01
5.590072601010101039e+01 6.392282196969696884e+01 6.633207070707071296e+01
5.605981691919191690e+01 6.413825757575757791e+01 6.646354166666667140e+01
5.620912247474747403e+01 6.435748106060606233e+01 6.660590277777777146e+01
5.630831755050505194e+01 6.456194760101010388e+01 6.672387941919191690e+01
5.647241950757575779e+01 6.483479324494949481e+01 6.688971748737374412e+01
5.657796717171716949e+01 6.509643308080808310e+01 6.699479166666667140e+01
5.664094065656565391e+01 6.517929292929292728e+01 6.700378787878787534e+01
5.597991635101010388e+01 6.434244791666667140e+01 6.620355902777777146e+01
5.515001578282828376e+01 6.282678345959595845e+01 6.522498421717172334e+01
5.465175189393939092e+01 6.200323547979797922e+01 6.482236426767676107e+01
5.462701231060606233e+01 6.170576862373737725e+01 6.480409564393939092e+01
5.431648516414141170e+01 6.126029829545454675e+01 6.456301294191919737e+01
5.404142992424242209e+01 6.057220643939393767e+01 6.417337436868686495e+01
5.366043244949494806e+01 5.997877209595959869e+01 6.386892361111111427e+01
5.359966856060606233e+01 5.972577335858586167e+01 6.384887941919191690e+01
5.384540719696969546e+01 6.005800189393939092e+01 6.416927083333332860e+01
5.399270044191919027e+01 6.028405145202020066e+01 6.433250473484848442e+01
5.391015625000000000e+01 6.019219539141413833e+01 6.418051609848484418e+01
5.387464488636363313e+01 6.015321180555555713e+01 6.418461963383838054e+01
5.401945233585858830e+01 6.027971117424242209e+01 6.433858112373737015e+01
5.412239583333333570e+01 6.050276199494949481e+01 6.443947285353534937e+01
5.419677241161615910e+01 6.072423453282828376e+01 6.457003630050505194e+01
5.438766571969696884e+01 6.096294981060606233e+01 6.468959122474747403e+01
5.443114741161615910e+01 6.113806029040404155e+01 6.479841382575757791e+01
5.456313131313131493e+01 6.135258838383838054e+01 6.493497474747475451e+01
5.466362847222222143e+01 6.157997948232323182e+01 6.501605902777777146e+01
5.482650726010101039e+01 6.177963226010101039e+01 6.517104640151515582e+01
5.490538194444444287e+01 6.200449810606060908e+01 6.528543244949494806e+01
5.508684501262626299e+01 6.224782986111111427e+01 6.538087910353534937e+01
5.515553977272727337e+01 6.252059659090909349e+01 6.552959280303029743e+01
5.531747159090909349e+01 6.275797032828283051e+01 6.566690340909090651e+01
5.539685921717171624e+01 6.302627840909090651e+01 6.576191603535353636e+01
5.558791035353535648e+01 6.327225378787878896e+01 6.593197601010101039e+01
5.566927083333333570e+01 6.345430871212121104e+01 6.601933396464646364e+01
5.580141256313131493e+01 6.365873579545454675e+01 6.612811710858585457e+01
5.594353693181817988e+01 6.391544349747474740e+01 6.629312657828282340e+01
5.607311395202020066e+01 6.419937657828282340e+01 6.647747001262625588e+01
5.619712752525252597e+01 6.442929292929292728e+01 6.660306186868686495e+01
5.632386363636363313e+01 6.461332070707071296e+01 6.664267676767676107e+01
5.586371527777777857e+01 6.403101325757575069e+01 6.608435921717172334e+01
5.513707386363636687e+01 6.279427083333333570e+01 6.523398042929292728e+01
5.474617266414141170e+01 6.207556029040404155e+01 6.487448705808080263e+01
5.464500473484848442e+01 6.179273200757575779e+01 6.482003630050505194e+01
5.448480902777777857e+01 6.152126736111111427e+01 6.470987215909090651e+01
5.426483585858586167e+01 6.105539772727272663e+01 6.445422979797979224e+01
5.406415719696969546e+01 6.068899936868687206e+01 6.426175820707071296e+01
5.412859059343434609e+01 6.064295296717171624e+01 6.434181660353534937e+01
5.440625000000000000e+01 6.104324494949494806e+01 6.470454545454545325e+01
5.445782039141413833e+01 6.116110321969696884e+01 6.473796559343433898e+01
5.431774779040404155e+01 6.104028566919191690e+01 6.460120738636364024e+01
5.437046243686868507e+01 6.106758996212121104e+01 6.463498263888888573e+01
5.446496212121212466e+01 6.120628156565656752e+01 6.476452020202020776e+01
5.464058554292929415e+01 6.142672821969696884e+01 6.491552241161616621e+01
5.472092013888888573e+01 6.163806029040404155e+01 6.503925978535353636e+01
5.482579703282828376e+01 6.187125157828283051e+01 6.517885890151515582e+01
5.495884627525252597e+01 6.207863794191919027e+01 6.529123263888888573e+01
5.508349116161615910e+01 6.228172348484848442e+01 6.536931818181818699e+01
5.515672348484848442e+01 6.245107323232323182e+01 6.544002525252524549e+01
5.523839962121212466e+01 6.264859532828283051e+01 6.555200441919191690e+01
5.536197916666666430e+01 6.288486426767676818e+01 6.568505366161616621e+01
5.550067077020202078e+01 6.310467960858586167e+01 6.579217960858585457e+01
5.560811237373737725e+01 6.335274621212121104e+01 6.593544823232323893e+01
5.571752683080808310e+01 6.360404829545454675e+01 6.604880839646465063e+01
5.590376420454545325e+01 6.378649779040404155e+01 6.619685132575757791e+01
5.598926767676767469e+01 6.398611111111111427e+01 6.630587121212121815e+01
5.609004103535353636e+01 6.418426452020202078e+01 6.640190972222222854e+01
5.623125789141413833e+01 6.442096748737374412e+01 6.656001420454545325e+01
5.634801136363636687e+01 6.465782828282827666e+01 6.670422979797979224e+01
5.646725063131312794e+01 6.485077335858585457e+01 6.677138573232323893e+01
5.650355113636363313e+01 6.493552714646465063e+01 6.676507260101010388e+01
5.596614583333333570e+01 6.415680239898989612e+01 6.610156250000000000e+01
5.522092013888888573e+01 6.294298453282828376e+01 6.530456912878787534e+01
5.491982323232323182e+01 6.225962752525252597e+01 6.500946969696970257e+01
5.482299558080808310e+01 6.201617739898989612e+01 6.499629103535353636e+01
5.464090119949494806e+01 6.164942392676767469e+01 6.481640625000000000e+01
5.436063762626262275e+01 6.114646464646464352e+01 6.456044823232323893e+01
5.422178819444444287e+01 6.077450284090909349e+01 6.436888415404040131e+01
5.431040877525252597e+01 6.087953756313131493e+01 6.454541508838383379e+01
5.457406092171716949e+01 6.120521622474747403e+01 6.482485006313130782e+01
5.445517676767676818e+01 6.114109848484848442e+01 6.470549242424242209e+01
5.440498737373737725e+01 6.104119318181817988e+01 6.462815656565656752e+01
5.443899936868687206e+01 6.109351325757575779e+01 6.470967487373737015e+01
5.457859848484848442e+01 6.124147727272727337e+01 6.483175505050505194e+01
5.468895991161615910e+01 6.145568970959595845e+01 6.498378314393939092e+01
5.478724747474747403e+01 6.164725378787878896e+01 6.509280303030303116e+01
5.489026988636363313e+01 6.183329387626262275e+01 6.518967013888888573e+01
5.504608585858586167e+01 6.202856691919191690e+01 6.528188131313130782e+01
5.507425820707070585e+01 6.218868371212121104e+01 6.537965593434343248e+01
5.517080965909090651e+01 6.236178188131312794e+01 6.549419981060606233e+01
5.527951388888888573e+01 6.254434974747474740e+01 6.558506944444444287e+01
5.542542613636363313e+01 6.272687815656565391e+01 6.568584280303029743e+01
5.549617266414141170e+01 6.295782039141413833e+01 6.581246054292928704e+01
5.570328282828283051e+01 6.320280934343434609e+01 6.598910984848484418e+01
5.577395044191919027e+01 6.348970170454545325e+01 6.611927872474747403e+01
5.591639046717171624e+01 6.365044981060606233e+01 6.623772885101010388e+01
5.590210700757575779e+01 6.365258049242424221e+01 6.619771938131313505e+01
5.532563920454545325e+01 6.278286773989898961e+01 6.551708491161616621e+01
5.467680713383838054e+01 6.155449021464646364e+01 6.480527935606060908e+01
5.434726167929292728e+01 6.093753945707070585e+01 6.451803188131313505e+01
5.422502367424242209e+01 6.065273832070707272e+01 6.447707544191919737e+01
5.397703598484848442e+01 6.019120896464646364e+01 6.427501578282827666e+01
5.370924084595959869e+01 5.964831912878787534e+01 6.398449337121212466e+01
5.356644570707070585e+01 5.932054924242424221e+01 6.387531565656565391e+01
5.370426925505050519e+01 5.951992582070707272e+01 6.408637152777777146e+01
5.402296401515151558e+01 5.991706123737373701e+01 6.439622790404040131e+01
5.395711016414141170e+01 5.992633364898989612e+01 6.438940183080808310e+01
5.397005208333333570e+01 5.986367582070707272e+01 6.432421875000000000e+01
5.402860637626262275e+01 5.996105587121212466e+01 6.442380839646465063e+01
5.419547032828283051e+01 6.020288825757575779e+01 6.460519255050505194e+01
5.433921243686868507e+01 6.046626420454545325e+01 6.477481849747475451e+01
5.452529198232323182e+01 6.073188920454545325e+01 6.492838541666667140e+01
5.460460069444444287e+01 6.096539614898989612e+01 6.506545928030303116e+01
5.475793087121212466e+01 6.119527304292929415e+01 6.517775410353534937e+01
5.485558712121212466e+01 6.141714015151514872e+01 6.528866792929292728e+01
5.497743055555555713e+01 6.164709595959595845e+01 6.545138888888888573e+01
5.513620580808080973e+01 6.189378156565656752e+01 6.562026515151515582e+01
5.527470012626262275e+01 6.213849431818182012e+01 6.574913194444444287e+01
5.536454387626262275e+01 6.240479008838384090e+01 6.590131786616161946e+01
5.554356060606060908e+01 6.266256313131312794e+01 6.604940025252524549e+01
5.570036300505050519e+01 6.294073547979797922e+01 6.622372159090909349e+01
5.588115530303030454e+01 6.326199494949494806e+01 6.637673611111111427e+01
5.601933396464646364e+01 6.349992108585858830e+01 6.654790088383838054e+01
5.614741161616161946e+01 6.375631313131312794e+01 6.667061237373737015e+01
5.628267045454545325e+01 6.403488005050505194e+01 6.683096590909090651e+01
5.645521622474747403e+01 6.433447758838383379e+01 6.701818970959595845e+01
5.660318023989898961e+01 6.461896306818181301e+01 6.718335700757575069e+01
5.661115056818182012e+01 6.463687657828282340e+01 6.716307607323231821e+01
5.600414299242424221e+01 6.377481849747474740e+01 6.646263415404040131e+01
5.536225536616161946e+01 6.247068339646464352e+01 6.570979324494949481e+01
5.504194286616161946e+01 6.186012468434343248e+01 6.554762468434343248e+01
5.505472695707070585e+01 6.169424715909090651e+01 6.556798453282827666e+01
5.477982954545454675e+01 6.126515151515151558e+01 6.542613636363635976e+01
5.452398989898989612e+01 6.072616792929292728e+01 6.514678030303029743e+01
5.430145202020202078e+01 6.033522727272727337e+01 6.498153409090909349e+01
5.440482954545454675e+01 6.036474116161615910e+01 6.508428030303029743e+01
5.467341382575757791e+01 6.083645044191919027e+01 6.547833806818181301e+01
5.480693655303030454e+01 6.102063604797979934e+01 6.560333806818181301e+01
5.473520359848485128e+01 6.099199021464646364e+01 6.556459122474747403e+01
5.481064551767676818e+01 6.107721748737373701e+01 6.565486900252524549e+01
5.496511994949494806e+01 6.134501262626262275e+01 6.584974747474747403e+01
5.516583806818182012e+01 6.163048453282828376e+01 6.608360953282827666e+01
5.529521780303030454e+01 6.194168244949494806e+01 6.626365214646465063e+01
5.550426136363636687e+01 6.223106060606060908e+01 6.644239267676768179e+01
5.557733585858586167e+01 6.248611111111111427e+01 6.656691919191919737e+01
5.576846590909090651e+01 6.274068813131312794e+01 6.669933712121212466e+01
5.585523200757575779e+01 6.301290246212121104e+01 6.688316761363635976e+01
5.602734375000000000e+01 6.330117582070707272e+01 6.706317077020202078e+01
5.618098958333333570e+01 6.356893150252525260e+01 6.721965751262625588e+01
5.638206281565656752e+01 6.384165877525252597e+01 6.739879261363635976e+01
5.649581755050505194e+01 6.412507891414141170e+01 6.755894886363635976e+01
5.669416824494949481e+01 6.443169981060606233e+01 6.773015309343433898e+01
5.683065025252525260e+01 6.473011363636364024e+01 6.791745580808080263e+01
5.697731218434343248e+01 6.500698390151515582e+01 6.803555082070707272e+01
5.708885732323232531e+01 6.531376262626262985e+01 6.817250631313130782e+01
5.735298295454545325e+01 6.565143623737374412e+01 6.836939709595959869e+01
5.741469381313131493e+01 6.594199810606060908e+01 6.851554608585858830e+01
5.761336016414141170e+01 6.617270359848484418e+01 6.866228693181818699e+01
5.747032828282828376e+01 6.601625631313130782e+01 6.844917929292928704e+01
5.691639046717171624e+01 6.512724905303029743e+01 6.777229324494949481e+01
5.656242108585858830e+01 6.443315972222222854e+01 6.748035037878787534e+01
5.653918087121212466e+01 6.428381470959595845e+01 6.752655460858585457e+01
5.645707070707070585e+01 6.415419823232323893e+01 6.752288510101010388e+01
5.626968907828283051e+01 6.380441130050505194e+01 6.730961963383838054e+01
5.604304766414141170e+01 6.346602746212121104e+01 6.717530776515151558e+01
5.605164930555555713e+01 6.336572758838384090e+01 6.720979324494949481e+01
5.624577809343434609e+01 6.365060763888888573e+01 6.745474273989898961e+01
5.642045454545454675e+01 6.396796085858586167e+01 6.765972222222222854e+01
5.638636363636363313e+01 6.399352904040404155e+01 6.763841540404040131e+01
5.642901672979797922e+01 6.397147253787878896e+01 6.763087910353534937e+01
5.648319128787878896e+01 6.414717487373737015e+01 6.773713699494949481e+01
5.666303661616161946e+01 6.435621843434343248e+01 6.790703914141414543e+01
5.680689709595959869e+01 6.458088699494949481e+01 6.804916351010101039e+01
5.687476325757575779e+01 6.483514835858585457e+01 6.815238320707071296e+01
5.700074968434343248e+01 6.504636205808080263e+01 6.826479640151515582e+01
5.713143150252525260e+01 6.526479640151515582e+01 6.838979640151515582e+01
5.721508049242424221e+01 6.547297190656566102e+01 6.848386205808080263e+01
5.737117266414141170e+01 6.568319917929292728e+01 6.859655145202020776e+01
5.749009627525252597e+01 6.591039299242424931e+01 6.870048137626262985e+01
5.759753787878787534e+01 6.615625000000000000e+01 6.883885732323231821e+01
5.770241477272727337e+01 6.639117739898989612e+01 6.897766729797979224e+01
5.785621843434343248e+01 6.661947601010101039e+01 6.905792297979797922e+01
5.794866635101010388e+01 6.685949337121212466e+01 6.921697443181818699e+01
5.811813446969696884e+01 6.709146148989898961e+01 6.936261047979797922e+01
5.822967960858586167e+01 6.733179450757575069e+01 6.948346748737374412e+01
5.837121212121212466e+01 6.755918560606060908e+01 6.962389520202020776e+01
5.838916508838384090e+01 6.765210700757575069e+01 6.962780145202020776e+01
5.800043402777777857e+01 6.707761205808080263e+01 6.907761205808080263e+01
5.747691761363636687e+01 6.616646938131313505e+01 6.852521306818181301e+01
5.724727746212121104e+01 6.574775094696970257e+01 6.838348327020202078e+01
5.727651515151514872e+01 6.565546085858585457e+01 6.845486111111111427e+01
5.716520675505050519e+01 6.545040246212121815e+01 6.840542140151515582e+01
5.688837594696969546e+01 6.507303503787878185e+01 6.823259943181818699e+01
5.687748579545454675e+01 6.485917771464646364e+01 6.816189236111111427e+01
5.705685763888888573e+01 6.507690183080808310e+01 6.839461016414141170e+01
5.718383049242424221e+01 6.529068023989898961e+01 6.853594539141414543e+01
5.708065025252525260e+01 6.520280934343433898e+01 6.844097222222222854e+01
5.707844065656565391e+01 6.512484217171717660e+01 6.838683712121212466e+01
5.708794981060606233e+01 6.518469854797979224e+01 6.845111268939393767e+01
5.717783301767676818e+01 6.533629261363635976e+01 6.854131155303029743e+01
5.725844381313131493e+01 6.549108270202020776e+01 6.864244002525252597e+01
5.735602114898989612e+01 6.566157670454545325e+01 6.870734690656566102e+01
5.749956597222222143e+01 6.590155460858585457e+01 6.883132102272726627e+01
5.758763415404040131e+01 6.604833491161616621e+01 6.887298768939393767e+01
5.764492582070707272e+01 6.617775410353534937e+01 6.894243213383838054e+01
5.771022727272727337e+01 6.633570075757575069e+01 6.901578282828282340e+01
5.778854955808080973e+01 6.648299400252524549e+01 6.910499526515151558e+01
5.790155460858586167e+01 6.665770991161616621e+01 6.919558869949494806e+01
5.800651041666666430e+01 6.686257102272726627e+01 6.930985637626262985e+01
5.810389046717171624e+01 6.707137784090909349e+01 6.941749526515151558e+01
5.817574179292929415e+01 6.725970643939393767e+01 6.951286300505050519e+01
5.828472222222222143e+01 6.739204545454545325e+01 6.957291666666667140e+01
5.824439709595959869e+01 6.735740214646465063e+01 6.949313446969696884e+01
5.770939867424242209e+01 6.649790877525252597e+01 6.882098327020202078e+01
5.714216382575757791e+01 6.552174084595959869e+01 6.825453756313130782e+01
5.701515151515151558e+01 6.507844065656566102e+01 6.812989267676768179e+01
5.691358901515151558e+01 6.490064709595959869e+01 6.809856376262625588e+01
5.676120580808080973e+01 6.452320075757575069e+01 6.790877525252524549e+01
5.642301925505050519e+01 6.403176294191919737e+01 6.763403566919191690e+01
5.630713383838384090e+01 6.380176767676767469e+01 6.754529671717172334e+01
5.650244633838384090e+01 6.403795770202020776e+01 6.778180239898989612e+01
5.667400568181817988e+01 6.425181502525252597e+01 6.791153724747475451e+01
5.652801452020202078e+01 6.410882260101010388e+01 6.777154356060606233e+01
5.647427398989898961e+01 6.403914141414141170e+01 6.769444444444444287e+01
5.654375789141413833e+01 6.412503945707071296e+01 6.777513415404040131e+01
5.672944286616161946e+01 6.434465751262625588e+01 6.792578125000000000e+01
5.679040404040404155e+01 6.454324494949494806e+01 6.801893939393939092e+01
5.693438289141413833e+01 6.469700915404040131e+01 6.812156723484848442e+01
5.698046875000000000e+01 6.485688920454545325e+01 6.819211647727273373e+01
5.709272411616161946e+01 6.502817234848484418e+01 6.826996527777777146e+01
5.713865214646464352e+01 6.518742108585858830e+01 6.832536300505050519e+01
5.727288510101010388e+01 6.538383838383838054e+01 6.844507575757575069e+01
5.733483270202020066e+01 6.558609532828282340e+01 6.853338068181818699e+01
5.748504577020202078e+01 6.579738794191919737e+01 6.863182607323231821e+01
5.752746212121212466e+01 6.598216540404040131e+01 6.872964015151515582e+01
5.768248895202020066e+01 6.619385258838383379e+01 6.880512152777777146e+01
5.774179292929292728e+01 6.639630681818181301e+01 6.893150252525252597e+01
5.790234375000000000e+01 6.662740688131313505e+01 6.905275410353534937e+01
5.803030303030303116e+01 6.686379419191919737e+01 6.919113005050505194e+01
5.815254103535353636e+01 6.706699810606060908e+01 6.928653724747475451e+01
5.809852430555555713e+01 6.710594223484848442e+01 6.925777304292928704e+01
5.761296559343434609e+01 6.631451231060606233e+01 6.859150094696970257e+01
5.692941130050505194e+01 6.505520044191919737e+01 6.777742266414141170e+01
5.661304450757575779e+01 6.440897253787878185e+01 6.752276672979797922e+01
5.647979797979797922e+01 6.412784090909090651e+01 6.745249368686869218e+01
5.624873737373737725e+01 6.372916666666666430e+01 6.723832070707071296e+01
5.591710069444444287e+01 6.310333806818182012e+01 6.690668402777777146e+01
5.568497474747474740e+01 6.259927398989898961e+01 6.668213383838383379e+01
5.566311553030303116e+01 6.254963699494949481e+01 6.675702335858585457e+01
5.588194444444444287e+01 6.293308080808080973e+01 6.703077651515151558e+01
5.598749210858586167e+01 6.307540246212121104e+01 6.709150094696970257e+01
5.591970486111111427e+01 6.298394097222222143e+01 6.700082859848484418e+01
5.592806976010101039e+01 6.298804450757575779e+01 6.701582228535353636e+01
5.610791508838384090e+01 6.319298453282828376e+01 6.714626736111111427e+01
5.621934185606060908e+01 6.341126104797979934e+01 6.727237215909090651e+01
5.634390782828283051e+01 6.363573232323232531e+01 6.739630681818181301e+01
5.648019255050505194e+01 6.387697285353535648e+01 6.752564709595959869e+01
5.659895833333333570e+01 6.404545454545454675e+01 6.763178661616161946e+01
5.666528566919191690e+01 6.426140309343433898e+01 6.774277935606060908e+01
5.681762941919191690e+01 6.443978851010101039e+01 6.784051452020202078e+01
5.689457070707070585e+01 6.465277777777777146e+01 6.795028409090909349e+01
5.702679135101010388e+01 6.486280776515151558e+01 6.806956281565656752e+01
5.712555239898989612e+01 6.509477588383838054e+01 6.815285669191919737e+01
5.724877683080808310e+01 6.535862531565656752e+01 6.827907986111111427e+01
5.738754734848485128e+01 6.561876578282827666e+01 6.840411931818181301e+01
5.750635258838384090e+01 6.579596748737374412e+01 6.852860637626262985e+01
5.758577967171716949e+01 6.599281881313130782e+01 6.857725694444444287e+01
5.771054292929292728e+01 6.621022727272726627e+01 6.871748737373737015e+01
5.784240845959595845e+01 6.649897411616161946e+01 6.886971275252524549e+01
5.799376578282828376e+01 6.675007891414141170e+01 6.903922032828282340e+01
5.808116319444444287e+01 6.695979324494949481e+01 6.912819602272726627e+01
5.804801925505050519e+01 6.693280460858585457e+01 6.903192077020202078e+01
5.735116792929292728e+01 6.589646464646465063e+01 6.820833333333332860e+01
5.667605744949494806e+01 6.460945391414141170e+01 6.734666982323231821e+01
5.633704229797979934e+01 6.399234532828283051e+01 6.714843750000000000e+01
5.628381470959595845e+01 6.375761521464646364e+01 6.708258364898989612e+01
5.602493686868687206e+01 6.332717803030303116e+01 6.684659090909090651e+01
5.568769728535353636e+01 6.271515940656565391e+01 6.653270991161616621e+01
5.550706281565656752e+01 6.231293402777777857e+01 6.637148832070707272e+01
5.561059816919191690e+01 6.244977114898989612e+01 6.653531407828282340e+01
5.584741950757575779e+01 6.288545612373737725e+01 6.685531092171717660e+01
5.593675031565656752e+01 6.298236268939393767e+01 6.686935763888888573e+01
5.586241319444444287e+01 6.291875789141413833e+01 6.680291193181818699e+01
5.590198863636363313e+01 6.298642676767676818e+01 6.686000631313130782e+01
5.607891414141413833e+01 6.318560606060606233e+01 6.700962752525252597e+01
5.623173137626262275e+01 6.343169981060606233e+01 6.718390940656566102e+01
5.635937500000000000e+01 6.370959595959595845e+01 6.732907196969696884e+01
5.644764046717171624e+01 6.391418087121212466e+01 6.744543087121212466e+01
5.654068023989898961e+01 6.413222064393939092e+01 6.755504261363635976e+01
5.666335227272727337e+01 6.433175505050505194e+01 6.766871843434343248e+01
5.673212594696969546e+01 6.452284564393939092e+01 6.775374842171717660e+01
5.696294981060606233e+01 6.477181976010101039e+01 6.787819602272726627e+01
5.705117582070707272e+01 6.501755839646465063e+01 6.799861900252524549e+01
5.717720170454545325e+01 6.528073705808080263e+01 6.812622316919191690e+01
5.730425347222222143e+01 6.555788352272726627e+01 6.824112215909090651e+01
5.748887310606060908e+01 6.581336805555555713e+01 6.841327335858585457e+01
5.758404356060606233e+01 6.602880366161616621e+01 6.852154356060606233e+01
5.772344539141413833e+01 6.625232796717172334e+01 6.865763099747475451e+01
5.779663825757575779e+01 6.647451073232323893e+01 6.874439709595959869e+01
5.794712752525252597e+01 6.671306818181818699e+01 6.889504419191919737e+01
5.808988320707070585e+01 6.699092487373737015e+01 6.906242108585858830e+01
5.821930239898989612e+01 6.721851325757575069e+01 6.917732007575757791e+01
5.828586647727272663e+01 6.738040561868686495e+01 6.918817077020202078e+01
5.779529671717171624e+01 6.664678030303029743e+01 6.855034722222222854e+01
5.688774463383838054e+01 6.516347064393939092e+01 6.756403882575757791e+01
5.650678661616161946e+01 6.431897095959595845e+01 6.712610479797979224e+01
5.638336489898989612e+01 6.409280303030303116e+01 6.713036616161616621e+01
5.625812815656565391e+01 6.382315340909090651e+01 6.703843118686869218e+01
5.597936395202020066e+01 6.331901041666666430e+01 6.674404198232323893e+01
5.578701073232323182e+01 6.290553977272727337e+01 6.656841856060606233e+01
5.589764835858586167e+01 6.300197285353535648e+01 6.671519886363635976e+01
5.613928345959595845e+01 6.341658775252525260e+01 6.702122790404040131e+01
5.613273358585858830e+01 6.343639520202020066e+01 6.701010101010101039e+01
5.607271938131312794e+01 6.330883049242424221e+01 6.690905145202020776e+01
5.606940498737373701e+01 6.333282039141413833e+01 6.695482165404040131e+01
5.619566761363636687e+01 6.351921559343434609e+01 6.709197443181818699e+01
5.632753314393939092e+01 6.375808869949494806e+01 6.723330965909090651e+01
5.650276199494949481e+01 6.401838699494949481e+01 6.740806502525252597e+01
5.664847695707070585e+01 6.430409564393939092e+01 6.757019412878787534e+01
5.675370896464646364e+01 6.450228851010101039e+01 6.769136679292928704e+01
5.681147411616161946e+01 6.471251578282827666e+01 6.776491477272726627e+01
5.694815340909090651e+01 6.488375946969696884e+01 6.784903724747475451e+01
5.702537089646464352e+01 6.510018150252524549e+01 6.796397569444444287e+01
5.717372948232323182e+01 6.531672190656566102e+01 6.807934816919191690e+01
5.730685763888888573e+01 6.553886521464646364e+01 6.822778566919191690e+01
5.745367739898989612e+01 6.578416982323231821e+01 6.835535037878787534e+01
5.760321969696969546e+01 6.606739267676768179e+01 6.853125000000000000e+01
5.771910511363636687e+01 6.629991319444444287e+01 6.865976167929292728e+01
5.779869002525252597e+01 6.650228851010101039e+01 6.878606376262625588e+01
5.777623895202020066e+01 6.647478693181818699e+01 6.868564551767676107e+01
5.713020833333333570e+01 6.547111742424242209e+01 6.784753787878787534e+01
5.644906092171716949e+01 6.416070864898989612e+01 6.701187657828282340e+01
5.607820391414141170e+01 6.350560290404040131e+01 6.682362689393939092e+01
5.604257417929292728e+01 6.336375473484848442e+01 6.681261837121212466e+01
5.583376736111111427e+01 6.301463857323232531e+01 6.662432922979797922e+01
5.560842803030303116e+01 6.254987373737373701e+01 6.639236111111111427e+01
5.544113005050505194e+01 6.227588383838384090e+01 6.629924242424242209e+01
5.571657986111111427e+01 6.260010258838384090e+01 6.661935763888888573e+01
5.590254103535353636e+01 6.297514204545454675e+01 6.684730113636364024e+01
5.587705176767676818e+01 6.289962121212121104e+01 6.679040404040404155e+01
5.582437657828283051e+01 6.285767834595959869e+01 6.672794349747475451e+01
5.589922664141413833e+01 6.296788194444444287e+01 6.683262310606060908e+01
5.603484059343434609e+01 6.325090751262626299e+01 6.702458175505050519e+01
5.628342013888888573e+01 6.357019412878787534e+01 6.721618529040404155e+01
5.637101483585858830e+01 6.383139993686868507e+01 6.736028251262625588e+01
5.650733901515151558e+01 6.406352588383838054e+01 6.750165719696970257e+01
5.663281250000000000e+01 6.425449810606060908e+01 6.761276830808080263e+01
5.674384469696969546e+01 6.449416035353534937e+01 6.774826388888888573e+01
5.686856849747474740e+01 6.471657986111111427e+01 6.784883996212121815e+01
5.701479640151514872e+01 6.496397569444444287e+01 6.797360321969696884e+01
5.712910353535353636e+01 6.521006944444444287e+01 6.808617424242424931e+01
5.729186395202020066e+01 6.549214804292928704e+01 6.822589172979797922e+01
5.743651357323232531e+01 6.574838226010101039e+01 6.839610953282827666e+01
5.752051767676767469e+01 6.593718434343433898e+01 6.846575126262625588e+01
5.762776199494949481e+01 6.619120896464646364e+01 6.860535037878787534e+01
5.779991319444444287e+01 6.647999526515151558e+01 6.878491950757575069e+01
5.796448863636363313e+01 6.677162247474747403e+01 6.896070075757575069e+01
5.806194760101010388e+01 6.695052083333332860e+01 6.905973800505050519e+01
5.770198074494949481e+01 6.647644412878787534e+01 6.857650726010101039e+01
5.678093434343434609e+01 6.491319444444444287e+01 6.744302398989898961e+01
5.614283459595959869e+01 6.374037247474747403e+01 6.680981691919191690e+01
5.600236742424242209e+01 6.335306186868687206e+01 6.674305555555555713e+01
5.586095328282828376e+01 6.307481060606060908e+01 6.662152777777777146e+01
5.554068023989898961e+01 6.252789614898989612e+01 6.633739741161616621e+01
5.520415088383838054e+01 6.193142361111111427e+01 6.603432765151515582e+01
5.518548768939393767e+01 6.170032354797979934e+01 6.597305082070707272e+01
5.543114741161615910e+01 6.207271938131312794e+01 6.635160195707071296e+01
5.568840751262626299e+01 6.244472064393939092e+01 6.658029513888888573e+01
5.559375000000000000e+01 6.242834595959595845e+01 6.653140782828282340e+01
5.562385574494949481e+01 6.243461963383838054e+01 6.651179766414141170e+01
5.569314236111111427e+01 6.257445549242424221e+01 6.662085700757575069e+01
5.587180397727272663e+01 6.286422821969696884e+01 6.683439867424242209e+01
5.603231534090909349e+01 6.317988478535353636e+01 6.701053503787878185e+01
5.619937657828283051e+01 6.345884627525252597e+01 6.715865688131313505e+01
5.632177241161615910e+01 6.368572443181817988e+01 6.728831281565656752e+01
5.641508838383838054e+01 6.391903409090909349e+01 6.738604797979797922e+01
5.656297348484848442e+01 6.413368055555555713e+01 6.755066287878787534e+01
5.673836016414141170e+01 6.438829703282827666e+01 6.767459753787878185e+01
5.684169823232323182e+01 6.462926136363635976e+01 6.781518308080808310e+01
5.700299873737373701e+01 6.492408459595959869e+01 6.797048611111111427e+01
5.716907354797979934e+01 6.522447127525252597e+01 6.811036142676768179e+01
5.728614267676767469e+01 6.549289772727273373e+01 6.824857954545454675e+01
5.743418560606060908e+01 6.577572601010101039e+01 6.838541666666667140e+01
5.764378156565656752e+01 6.603661616161616621e+01 6.853551136363635976e+01
5.774826388888888573e+01 6.631881313131313505e+01 6.872506313131313505e+01
5.791283933080808310e+01 6.664137468434343248e+01 6.890037089646465063e+01
5.805808080808080973e+01 6.682922979797979224e+01 6.898311237373737015e+01
5.766729797979797922e+01 6.628393308080808310e+01 6.846938131313130782e+01
5.668623737373737725e+01 6.471496212121212466e+01 6.731328914141414543e+01
5.610026041666666430e+01 6.353823390151514872e+01 6.672305082070707272e+01
5.590360637626262275e+01 6.318611900252525260e+01 6.665802556818181301e+01
5.577308238636363313e+01 6.290455334595959869e+01 6.652986900252524549e+01
5.548504577020202078e+01 6.233937026515151558e+01 6.625224905303029743e+01
5.517278251262626299e+01 6.177284564393939092e+01 6.595734690656566102e+01
5.508609532828283051e+01 6.162681502525252597e+01 6.593884154040404155e+01
5.543248895202020066e+01 6.199562026515151558e+01 6.630717329545454675e+01
5.559260574494949481e+01 6.239642518939393767e+01 6.656419665404040131e+01
5.557982165404040131e+01 6.237922190656565391e+01 6.652316130050505194e+01
5.554936079545454675e+01 6.238285195707070585e+01 6.652994791666667140e+01
5.573129734848485128e+01 6.257946654040404155e+01 6.666216856060606233e+01
5.590960385101010388e+01 6.285894097222222143e+01 6.687961647727273373e+01
5.604825599747474740e+01 6.319661458333333570e+01 6.704699337121212466e+01
5.619653566919191690e+01 6.347052556818182012e+01 6.721642203282827666e+01
5.635136521464646364e+01 6.371784248737373701e+01 6.736572758838383379e+01
5.641942866161615910e+01 6.398950441919191690e+01 6.745162563131313505e+01
5.659919507575757791e+01 6.421046401515151558e+01 6.759114583333332860e+01
5.673966224747474740e+01 6.446851325757575069e+01 6.776160037878787534e+01
5.688281250000000000e+01 6.472861426767676107e+01 6.788849431818181301e+01
5.700011837121212466e+01 6.498165246212121815e+01 6.802631786616161946e+01
5.720533459595959869e+01 6.528787878787878185e+01 6.817676767676768179e+01
5.734809027777777857e+01 6.559225063131313505e+01 6.831573547979797922e+01
5.752331912878787534e+01 6.586470170454545325e+01 6.847328756313130782e+01
5.761714804292929415e+01 6.609473642676768179e+01 6.861004577020202078e+01
5.779604640151514872e+01 6.639516256313130782e+01 6.876574337121212466e+01
5.796018781565656752e+01 6.668446180555555713e+01 6.894519412878787534e+01
5.810637626262626299e+01 6.699526515151515582e+01 6.906628787878787534e+01
5.820257260101010388e+01 6.723839962121212466e+01 6.918473800505050519e+01
5.804557291666666430e+01 6.710428503787878185e+01 6.896081912878787534e+01
5.719057765151514872e+01 6.574629103535353636e+01 6.790317234848484418e+01
5.640920928030303116e+01 6.432556029040404155e+01 6.703610321969696884e+01
5.612941919191919027e+01 6.381676136363636687e+01 6.687247474747475451e+01
5.613486426767676818e+01 6.370430871212121104e+01 6.689812184343433898e+01
5.591871843434343248e+01 6.331786616161615910e+01 6.670123106060606233e+01
5.560515309343434609e+01 6.275508996212121104e+01 6.641291824494949481e+01
5.552367424242424221e+01 6.252635732323232531e+01 6.634974747474747403e+01
5.579541508838384090e+01 6.289279513888888573e+01 6.669030145202020776e+01
5.595829387626262275e+01 6.315573705808080973e+01 6.689579387626262985e+01
5.586805555555555713e+01 6.307339015151514872e+01 6.677635732323231821e+01
5.581013257575757791e+01 6.300994318181817988e+01 6.672458964646465063e+01
5.592017834595959869e+01 6.310736268939393767e+01 6.683274147727273373e+01
5.609777462121212466e+01 6.337634154040404155e+01 6.703416982323231821e+01
5.626167929292929415e+01 6.362720959595959869e+01 6.717818813131313505e+01
5.634840593434343248e+01 6.389922664141413833e+01 6.733862058080808310e+01
5.656589330808080973e+01 6.416658775252524549e+01 6.748524305555555713e+01
5.661166351010101039e+01 6.438107638888888573e+01 6.758862058080808310e+01
5.671074021464646364e+01 6.455117582070707272e+01 6.763372001262625588e+01
5.681502525252525260e+01 6.473106060606060908e+01 6.774842171717172334e+01
5.695190183080808310e+01 6.497052556818181301e+01 6.785310132575757791e+01
5.705819917929292728e+01 6.518477746212121815e+01 6.797502367424242209e+01
5.723591382575757791e+01 6.550485321969696884e+01 6.814784564393939092e+01
5.735570549242424221e+01 6.578073705808080263e+01 6.831609059343433898e+01
5.755496369949494806e+01 6.603413036616161946e+01 6.846736900252524549e+01
5.761410984848485128e+01 6.622506313131313505e+01 6.858396464646465063e+01
5.754154829545454675e+01 6.614366319444444287e+01 6.842459753787878185e+01
5.672597064393939092e+01 6.497833806818181301e+01 6.745750473484848442e+01
5.600106534090909349e+01 6.361122948232323182e+01 6.664705650252524549e+01
5.566532512626262275e+01 6.304237689393939092e+01 6.643726325757575069e+01
5.563786300505050519e+01 6.289464962121212466e+01 6.643505366161616621e+01
5.543023989898989612e+01 6.255318813131312794e+01 6.628772095959595845e+01
5.519933712121212466e+01 6.208759469696969546e+01 6.602383207070707272e+01
5.514409722222222143e+01 6.192676767676767469e+01 6.604608585858585457e+01
5.548445391414141170e+01 6.233940972222222143e+01 6.639922664141414543e+01
5.557938762626262275e+01 6.256881313131312794e+01 6.654040404040404155e+01
5.549786931818182012e+01 6.246583017676767469e+01 6.644152462121212466e+01
5.549025410353535648e+01 6.243091066919191690e+01 6.644101167929292728e+01
5.560807291666666430e+01 6.257193023989898961e+01 6.653894412878787534e+01
5.579600694444444287e+01 6.287776199494949481e+01 6.677343750000000000e+01
5.597139362373737725e+01 6.317893781565656752e+01 6.694882417929292728e+01
5.609690656565656752e+01 6.346859217171716949e+01 6.711316287878787534e+01
5.622305082070707272e+01 6.366433869949494806e+01 6.722336647727273373e+01
5.634209280303030454e+01 6.386355744949494806e+01 6.734083017676768179e+01
5.644973169191919027e+01 6.408925189393939092e+01 6.742826704545454675e+01
5.653203914141413833e+01 6.431439393939393767e+01 6.754119318181818699e+01
5.667921401515151558e+01 6.453022411616161946e+01 6.764843750000000000e+01
5.681324968434343248e+01 6.479809816919191690e+01 6.778862847222222854e+01
5.695584753787878896e+01 6.504123263888888573e+01 6.792980587121212466e+01
5.701294191919191690e+01 6.534059343434343248e+01 6.801988636363635976e+01
5.721689551767676818e+01 6.557153566919191690e+01 6.818091066919191690e+01
5.735258838383838054e+01 6.578898358585858830e+01 6.830003156565656752e+01
5.749120107323232531e+01 6.605354324494949481e+01 6.845868844696970257e+01
5.761604324494949481e+01 6.632248263888888573e+01 6.862740688131313505e+01
5.777730429292929415e+01 6.655650252525252597e+01 6.872774621212121815e+01
5.756340751262626299e+01 6.637196180555555713e+01 6.847249842171717660e+01
5.668619791666666430e+01 6.493682922979797922e+01 6.730756786616161946e+01
5.579699337121212466e+01 6.340431660353535648e+01 6.640936710858585457e+01
5.549108270202020066e+01 6.276633522727272663e+01 6.619720643939393767e+01
5.536047979797979934e+01 6.251704545454545325e+01 6.615151515151515582e+01
5.511154513888888573e+01 6.202158301767676818e+01 6.591094539141414543e+01
5.472707544191919027e+01 6.134623579545454675e+01 6.556861584595959869e+01
5.452331912878787534e+01 6.087748579545454675e+01 6.536817392676768179e+01
5.463537720959595845e+01 6.101637468434343248e+01 6.553862847222222854e+01
5.498437500000000000e+01 6.143371212121212466e+01 6.590056818181818699e+01
5.494799558080808310e+01 6.147040719696969546e+01 6.589070391414141170e+01
5.489382102272727337e+01 6.136272885101010388e+01 6.581506470959595845e+01
5.485692866161615910e+01 6.142621527777777857e+01 6.586497790404040131e+01
5.509493371212121104e+01 6.165333017676767469e+01 6.605374053030303116e+01
5.518394886363636687e+01 6.194373421717171624e+01 6.624629103535353636e+01
5.538873106060606233e+01 6.220407196969696884e+01 6.642534722222222854e+01
5.548780776515151558e+01 6.245371685606060908e+01 6.652331912878787534e+01
5.561967329545454675e+01 6.264524147727272663e+01 6.659568339646465063e+01
5.565407986111111427e+01 6.285089172979797922e+01 6.670000789141414543e+01
5.585400883838384090e+01 6.312184343434343248e+01 6.687279040404040131e+01
5.603472222222222143e+01 6.336631944444444287e+01 6.702304292929292728e+01
5.612949810606060908e+01 6.359840593434343248e+01 6.712965593434343248e+01
5.624313446969696884e+01 6.387428977272727337e+01 6.729932133838383379e+01
5.642732007575757791e+01 6.414117739898989612e+01 6.742053345959595845e+01
5.655638415404040131e+01 6.440486900252524549e+01 6.754959753787878185e+01
5.665577651515151558e+01 6.461884469696970257e+01 6.763731060606060908e+01
5.679703282828283051e+01 6.491224747474747403e+01 6.777556818181818699e+01
5.700347222222222143e+01 6.523216540404040131e+01 6.798042929292928704e+01
5.714910827020202078e+01 6.552252998737374412e+01 6.813900726010101039e+01
5.722372159090909349e+01 6.566059027777777146e+01 6.817447916666667140e+01
5.670880681818182012e+01 6.504371843434343248e+01 6.756297348484848442e+01
5.586091382575757791e+01 6.352268781565656752e+01 6.651921559343433898e+01
5.527438446969696884e+01 6.254048295454545325e+01 6.601444128787878185e+01
5.519578598484848442e+01 6.224250315656565391e+01 6.601538825757575069e+01
5.501684816919191690e+01 6.195056029040404155e+01 6.593682922979797922e+01
5.470182291666666430e+01 6.137748579545454675e+01 6.565557922979797922e+01
5.437571022727272663e+01 6.083814709595959869e+01 6.537350063131313505e+01
5.441137941919191690e+01 6.069010416666666430e+01 6.538865214646465063e+01
5.469341856060606233e+01 6.105011047979797922e+01 6.571867108585858830e+01
5.485606060606060908e+01 6.134343434343434609e+01 6.591792929292928704e+01
5.477043876262626299e+01 6.128132891414141170e+01 6.584130366161616621e+01
5.479371843434343248e+01 6.124384469696969546e+01 6.582859848484848442e+01
5.488719223484848442e+01 6.140013415404040131e+01 6.593943339646465063e+01
5.505827809343434609e+01 6.166986268939393767e+01 6.614208491161616621e+01
5.514851641414141170e+01 6.196796085858586167e+01 6.633885732323231821e+01
5.531388099747474740e+01 6.221287089646464352e+01 6.647644412878787534e+01
5.541197127525252597e+01 6.245111268939393767e+01 6.656348642676768179e+01
5.553491950757575779e+01 6.267301925505050519e+01 6.670616319444444287e+01
5.567929292929292728e+01 6.291714015151514872e+01 6.682260101010101039e+01
5.586691130050505194e+01 6.315084438131312794e+01 6.696555397727273373e+01
5.594326073232323182e+01 6.341185290404040131e+01 6.709887941919191690e+01
5.607212752525252597e+01 6.366429924242424221e+01 6.723232323232323893e+01
5.625043402777777857e+01 6.391189236111111427e+01 6.737985321969696884e+01
5.641114267676767469e+01 6.419333964646465063e+01 6.752446338383838054e+01
5.653910195707070585e+01 6.444377367424242209e+01 6.764121685606060908e+01
5.666678503787878896e+01 6.471460700757575069e+01 6.775122316919191690e+01
5.677761994949494806e+01 6.497790404040404155e+01 6.787010732323231821e+01
5.694767992424242209e+01 6.521725063131313505e+01 6.795872790404040131e+01
5.704407354797979934e+01 6.547778566919191690e+01 6.811872632575757791e+01
5.723070549242424221e+01 6.572170928030303116e+01 6.826858428030303116e+01
5.738383838383838054e+01 6.599905303030303116e+01 6.842645202020202078e+01
5.747482638888888573e+01 6.622403724747475451e+01 6.850812815656566102e+01
5.742937184343434609e+01 6.620083648989898961e+01 6.838170770202020776e+01
5.663707386363636687e+01 6.501302083333332860e+01 6.736071654040404155e+01
5.590116003787878896e+01 6.377205650252525260e+01 6.659102746212121815e+01
5.567645202020202078e+01 6.332702020202020066e+01 6.648074494949494806e+01
5.566978377525252597e+01 6.324096433080808310e+01 6.653657670454545325e+01
5.547549715909090651e+01 6.289752998737373701e+01 6.638585069444444287e+01
5.517246685606060908e+01 6.239026988636363313e+01 6.608629261363635976e+01
5.505717329545454675e+01 6.205748895202020066e+01 6.598031092171717660e+01
5.515751262626262275e+01 6.222727272727272663e+01 6.615009469696970257e+01
5.539196654040404155e+01 6.255326704545454675e+01 6.639133522727273373e+01
5.532275883838384090e+01 6.250757575757575779e+01 6.632559974747475451e+01
5.527509469696969546e+01 6.238383838383838054e+01 6.623153409090909349e+01
5.529648042929292728e+01 6.242369002525252597e+01 6.625355113636364024e+01
5.542613636363636687e+01 6.255303030303030454e+01 6.634659090909090651e+01
5.552663352272727337e+01 6.275627367424242209e+01 6.647107796717172334e+01
5.563581123737373701e+01 6.297166982323232531e+01 6.659493371212121815e+01
5.573717645202020066e+01 6.315415877525252597e+01 6.670639993686869218e+01
5.582307449494949481e+01 6.331818181818182012e+01 6.679545454545454675e+01
5.591785037878787534e+01 6.348208648989898961e+01 6.686245265151515582e+01
5.599857954545454675e+01 6.361111111111111427e+01 6.691556186868686495e+01
5.607922979797979934e+01 6.382702020202020066e+01 6.703361742424242209e+01
5.619503630050505194e+01 6.400911458333332860e+01 6.709623579545454675e+01
5.635156250000000000e+01 6.424423926767676107e+01 6.724660669191919737e+01
5.646354166666666430e+01 6.445928030303029743e+01 6.733996212121212466e+01
5.660389046717171624e+01 6.468690814393939092e+01 6.743895991161616621e+01
5.665258049242424221e+01 6.491441761363635976e+01 6.750406407828282340e+01
5.678480113636363313e+01 6.512855113636364024e+01 6.765932765151515582e+01
5.691062973484848442e+01 6.527521306818181301e+01 6.774443655303029743e+01
5.671646148989898961e+01 6.506810290404040131e+01 6.748934659090909349e+01
5.595829387626262275e+01 6.389547821969696884e+01 6.652284564393939092e+01
5.529486268939393767e+01 6.274151672979797922e+01 6.589382102272726627e+01
5.514650410353535648e+01 6.239808238636363313e+01 6.586272885101010388e+01
5.513727114898989612e+01 6.231214488636363313e+01 6.589405776515151558e+01
5.496942077020202078e+01 6.194543087121212466e+01 6.569401041666667140e+01
5.470363794191919027e+01 6.150872001262626299e+01 6.546074021464646364e+01
5.469365530303030454e+01 6.136994949494949481e+01 6.547364267676768179e+01
5.490826231060606233e+01 6.171665877525252597e+01 6.578326231060606233e+01
5.497309027777777857e+01 6.178527462121212466e+01 6.581115845959595845e+01
5.482634943181817988e+01 6.160286458333333570e+01 6.564484690656566102e+01
5.482043087121212466e+01 6.156190814393939092e+01 6.561083491161616621e+01
5.487823547979797922e+01 6.165569760101010388e+01 6.569783775252524549e+01
5.509895833333333570e+01 6.189883207070707272e+01 6.585195707070707272e+01
5.517357165404040131e+01 6.208755523989898961e+01 6.597249842171717660e+01
5.524467329545454675e+01 6.227765940656565391e+01 6.606253945707071296e+01
5.538281250000000000e+01 6.246409406565656752e+01 6.613754734848484418e+01
5.548551925505050519e+01 6.261241319444444287e+01 6.621452809343433898e+01
5.549952651515151558e+01 6.276010101010101039e+01 6.629214015151515582e+01
5.560081281565656752e+01 6.293130523989898961e+01 6.637543402777777146e+01
5.568959122474747403e+01 6.307721748737373701e+01 6.645142834595959869e+01
5.580748895202020066e+01 6.328791824494949481e+01 6.654360006313130782e+01
5.591382575757575779e+01 6.351862373737373701e+01 6.667818813131313505e+01
5.607922979797979934e+01 6.375583964646464352e+01 6.681250000000000000e+01
5.617712279040404155e+01 6.400619476010101039e+01 6.688340435606060908e+01
5.624049084595959869e+01 6.409434185606060908e+01 6.686359690656566102e+01
5.592696496212121104e+01 6.374167455808080973e+01 6.650256470959595845e+01
5.508708175505050519e+01 6.231609059343434609e+01 6.548038983585858830e+01
5.445837279040404155e+01 6.118911773989898961e+01 6.490455334595959869e+01
5.434201388888888573e+01 6.083554292929292728e+01 6.484090909090909349e+01
5.417503156565656752e+01 6.052888257575757791e+01 6.475615530303029743e+01
5.395675505050505194e+01 6.003993055555555713e+01 6.450520833333332860e+01
5.363545612373737725e+01 5.947936395202020066e+01 6.415960385101010388e+01
5.356178977272727337e+01 5.928243371212121104e+01 6.409446022727273373e+01
5.383554292929292728e+01 5.959485479797979934e+01 6.437121212121212466e+01
5.392672821969696884e+01 5.981356534090909349e+01 6.451889993686869218e+01
5.383096590909090651e+01 5.968702651515151558e+01 6.440751262626262985e+01
5.382283775252525260e+01 5.963312815656565391e+01 6.435140467171717660e+01
5.386000631313131493e+01 5.978219696969696884e+01 6.443450126262625588e+01
5.408617424242424221e+01 5.999447601010101039e+01 6.462894570707071296e+01
5.417870107323232531e+01 6.025366950757575779e+01 6.480717329545454675e+01
5.436308396464646364e+01 6.047088068181817988e+01 6.490916982323231821e+01
5.441524621212121104e+01 6.065467171717171624e+01 6.498895202020202078e+01
5.453338068181817988e+01 6.084951073232323182e+01 6.508862058080808310e+01
5.462417140151514872e+01 6.107177241161615910e+01 6.521492266414141170e+01
5.475035511363636687e+01 6.129644097222222143e+01 6.532153566919191690e+01
5.483313604797979934e+01 6.151085069444444287e+01 6.542088857323231821e+01
5.500145991161615910e+01 6.174341066919191690e+01 6.552986900252524549e+01
5.509039614898989612e+01 6.197581281565656752e+01 6.564989741161616621e+01
5.524767203282828376e+01 6.222526041666666430e+01 6.578649779040404155e+01
5.535949337121212466e+01 6.248354640151514872e+01 6.593888099747475451e+01
5.554659880050505194e+01 6.275430082070707272e+01 6.609363162878787534e+01
5.568876262626262275e+01 6.302477904040404155e+01 6.625031565656566102e+01
5.583412247474747403e+01 6.329182449494949481e+01 6.634643308080808310e+01
5.571401515151514872e+01 6.322806186868687206e+01 6.614299242424242209e+01
5.493122632575757791e+01 6.199861900252525260e+01 6.515897253787878185e+01
5.414224273989898961e+01 6.064524147727272663e+01 6.435404829545454675e+01
5.394397095959595845e+01 6.011852904040404155e+01 6.424684343434343248e+01
5.385637626262626299e+01 5.989693813131312794e+01 6.422821969696970257e+01
5.356001420454545325e+01 5.943785511363636687e+01 6.392728061868687206e+01
5.324534406565656752e+01 5.889338699494949481e+01 6.361482007575757791e+01
5.305168876262626299e+01 5.851286300505050519e+01 6.343899936868687206e+01
5.322735164141413833e+01 5.869310290404040131e+01 6.366043244949494806e+01
5.354466540404040131e+01 5.914646464646464352e+01 6.398768939393939092e+01
5.352789614898989612e+01 5.922581281565656752e+01 6.398954387626262275e+01
5.352761994949494806e+01 5.914851641414141170e+01 6.393197601010101039e+01
5.355614741161615910e+01 5.923259943181817988e+01 6.396539614898989612e+01
5.373129734848485128e+01 5.948476957070707272e+01 6.416216856060606233e+01
5.387133049242424221e+01 5.976021938131312794e+01 6.435428503787878185e+01
5.401633522727272663e+01 6.003306502525252597e+01 6.454711174242424931e+01
5.414476799242424221e+01 6.028823390151514872e+01 6.467412405303029743e+01
5.426594065656565391e+01 6.050615530303030454e+01 6.479056186868686495e+01
5.441126104797979934e+01 6.072281407828283051e+01 6.491820549242424931e+01
5.453914141414141170e+01 6.099431818181817988e+01 6.503156565656566102e+01
5.463194444444444287e+01 6.124984217171716949e+01 6.515230429292928704e+01
5.484090909090909349e+01 6.150000000000000000e+01 6.531265782828282340e+01
5.499056976010101039e+01 6.181538036616161946e+01 6.550761521464646364e+01
5.518824968434343248e+01 6.210570549242424221e+01 6.567057291666667140e+01
5.531352588383838054e+01 6.238596906565656752e+01 6.581384154040404155e+01
5.547332702020202078e+01 6.266714015151514872e+01 6.596922348484848442e+01
5.560677083333333570e+01 6.292589962121212466e+01 6.608798926767676107e+01
5.579119318181817988e+01 6.324005681818182012e+01 6.624526515151515582e+01
5.589800347222222143e+01 6.350232796717171624e+01 6.636264993686869218e+01
5.606687973484848442e+01 6.380630523989898961e+01 6.651889993686869218e+01
5.614614898989898961e+01 6.400252525252524549e+01 6.666003787878787534e+01
5.633905460858586167e+01 6.428981218434343248e+01 6.681901041666667140e+01
5.651696654040404155e+01 6.458214962121212466e+01 6.700007891414141170e+01
5.664425505050505194e+01 6.486316287878787534e+01 6.715467171717172334e+01
5.680149147727272663e+01 6.508384627525252597e+01 6.726219223484848442e+01
5.634371054292929415e+01 6.456293402777777146e+01 6.671176609848484418e+01
5.543138415404040131e+01 6.312898516414141170e+01 6.557753314393939092e+01
5.495067866161615910e+01 6.219547032828283051e+01 6.506431502525252597e+01
5.487381628787878896e+01 6.196014835858586167e+01 6.504316603535353636e+01
5.475023674242424221e+01 6.176286300505050519e+01 6.499124053030303116e+01
5.445872790404040131e+01 6.128495896464646364e+01 6.472040719696970257e+01
5.422048611111111427e+01 6.074589646464646364e+01 6.445596590909090651e+01
5.411726641414141170e+01 6.053519570707070585e+01 6.441366792929292728e+01
5.440605271464646364e+01 6.083708175505050519e+01 6.472328756313130782e+01
5.453645833333333570e+01 6.113715277777777857e+01 6.490451388888888573e+01
5.447005208333333570e+01 6.102324021464646364e+01 6.477955334595959869e+01
5.444515467171716949e+01 6.101491477272727337e+01 6.475528724747475451e+01
5.455062342171716949e+01 6.110649463383838054e+01 6.482556029040404155e+01
5.461998895202020066e+01 6.133005839646464352e+01 6.502039930555555713e+01
5.479454703282828376e+01 6.154044349747474740e+01 6.511872632575757791e+01
5.489464962121212466e+01 6.177785669191919027e+01 6.527643623737374412e+01
5.507970328282828376e+01 6.203645833333333570e+01 6.543402777777777146e+01
5.511280776515151558e+01 6.223149463383838054e+01 6.551700599747475451e+01
5.525007891414141170e+01 6.241437815656565391e+01 6.558767361111111427e+01
5.529616477272727337e+01 6.260471906565656752e+01 6.569767992424242209e+01
5.547837752525252597e+01 6.283112373737373701e+01 6.582323232323231821e+01
5.553768150252525260e+01 6.303594539141413833e+01 6.593319917929292728e+01
5.571271306818182012e+01 6.330188604797979934e+01 6.608755523989898961e+01
5.581380208333333570e+01 6.352876420454545325e+01 6.621531723484848442e+01
5.594925820707070585e+01 6.371519886363636687e+01 6.630610795454545325e+01
5.608633207070707272e+01 6.395896464646464352e+01 6.645817550505050519e+01
5.624360795454545325e+01 6.421583017676768179e+01 6.663060290404040131e+01
5.639228219696969546e+01 6.446740845959595845e+01 6.676112689393939092e+01
5.648772885101010388e+01 6.462930082070707272e+01 6.684410511363635976e+01
5.624498895202020066e+01 6.438466698232323893e+01 6.656774779040404155e+01
5.548713699494949481e+01 6.319594381313131493e+01 6.562997159090909349e+01
5.489898989898989612e+01 6.218907828282828376e+01 6.499163510101010388e+01
5.475465593434343248e+01 6.181573547979797922e+01 6.489764835858585457e+01
5.473579545454545325e+01 6.166382575757575779e+01 6.491508838383838054e+01
5.450276199494949481e+01 6.128338068181817988e+01 6.468379103535353636e+01
5.424680397727272663e+01 6.088111584595959869e+01 6.445908301767676107e+01
5.431344696969696884e+01 6.084927398989898961e+01 6.449857954545454675e+01
5.464117739898989612e+01 6.124045138888888573e+01 6.485598169191919737e+01
5.464626736111111427e+01 6.130930397727272663e+01 6.489958175505050519e+01
5.454628314393939092e+01 6.116623263888888573e+01 6.478128945707071296e+01
5.455930397727272663e+01 6.115494791666666430e+01 6.476889993686869218e+01
5.464362373737373701e+01 6.129782196969696884e+01 6.489867424242424931e+01
5.478432765151514872e+01 6.153211805555555713e+01 6.505310921717172334e+01
5.494333964646464352e+01 6.175394570707070585e+01 6.519760101010101039e+01
5.507938762626262275e+01 6.197821969696969546e+01 6.533775252525252597e+01
5.513671875000000000e+01 6.221216066919191690e+01 6.546405460858585457e+01
5.522364267676767469e+01 6.239141414141413833e+01 6.554908459595959869e+01
5.531545928030303116e+01 6.256893150252525260e+01 6.562590751262625588e+01
5.543367266414141170e+01 6.275927241161615910e+01 6.573638731060606233e+01
5.555018939393939092e+01 6.297664141414141170e+01 6.583601641414141170e+01
5.571176609848485128e+01 6.320482165404040131e+01 6.597218276515151558e+01
5.581711647727272663e+01 6.342286142676767469e+01 6.611414930555555713e+01
5.591694286616161946e+01 6.362906407828283051e+01 6.623654513888888573e+01
5.605216224747474740e+01 6.388281250000000000e+01 6.641658775252524549e+01
5.621622474747474740e+01 6.412484217171717660e+01 6.655429292929292728e+01
5.634741950757575779e+01 6.434994476010101039e+01 6.668580334595959869e+01
5.634698547979797922e+01 6.436687184343433898e+01 6.664764835858585457e+01
5.573480902777777857e+01 6.352979008838384090e+01 6.589500473484848442e+01
5.492294034090909349e+01 6.211044034090909349e+01 6.489863478535353636e+01
5.448362531565656752e+01 6.133447758838384090e+01 6.453712910353534937e+01
5.438032670454545325e+01 6.107050978535353636e+01 6.448165246212121815e+01
5.422770675505050519e+01 6.066425978535353636e+01 6.426747948232323893e+01
5.390960385101010388e+01 6.010152304292929415e+01 6.392301925505050519e+01
5.367301925505050519e+01 5.960736268939393767e+01 6.375430082070707272e+01
5.375071022727272663e+01 5.967479482323232531e+01 6.390664457070707272e+01
5.402406881313131493e+01 6.008767361111111427e+01 6.426680871212121815e+01
5.408313604797979934e+01 6.016536458333333570e+01 6.425201231060606233e+01
5.397699652777777857e+01 6.007090435606060908e+01 6.417144097222222854e+01
5.404659880050505194e+01 6.011351799242424221e+01 6.423094223484848442e+01
5.416347064393939092e+01 6.029431029040404155e+01 6.436107165404040131e+01
5.433814709595959869e+01 6.058814709595959869e+01 6.453779987373737015e+01
5.441145833333333570e+01 6.084485479797979934e+01 6.469239267676768179e+01
5.456068497474747403e+01 6.108641098484848442e+01 6.481684027777777146e+01
5.468189709595959869e+01 6.126996527777777857e+01 6.495304608585858830e+01
5.483518781565656752e+01 6.148559816919191690e+01 6.507208806818181301e+01
5.493465909090909349e+01 6.173800505050505194e+01 6.519712752525252597e+01
5.505595012626262275e+01 6.195004734848485128e+01 6.529742739898989612e+01
5.517250631313131493e+01 6.218134469696969546e+01 6.543497474747475451e+01
5.533858112373737725e+01 6.241844223484848442e+01 6.558652935606060908e+01
5.546464646464646364e+01 6.268860479797979934e+01 6.567566287878787534e+01
5.558187342171716949e+01 6.294014362373737725e+01 6.584197443181818699e+01
5.570158617424242209e+01 6.317759627525252597e+01 6.596973642676768179e+01
5.587377683080808310e+01 6.341749526515151558e+01 6.612314551767676107e+01
5.600729955808080973e+01 6.369590435606060908e+01 6.628981218434343248e+01
5.618173926767676818e+01 6.396567234848485128e+01 6.645509785353534937e+01
5.630160984848485128e+01 6.419933712121212466e+01 6.660653409090909349e+01
5.630476641414141170e+01 6.424558080808080263e+01 6.654940025252524549e+01
5.561300505050505194e+01 6.322758838383838054e+01 6.567203282828282340e+01
5.470939867424242209e+01 6.168682922979797922e+01 6.463900726010101039e+01
5.428783933080808310e+01 6.090321180555555713e+01 6.426684816919191690e+01
5.418532986111111427e+01 6.061130839646464352e+01 6.417365056818181301e+01
5.392230902777777857e+01 6.019913983585858830e+01 6.396192392676767469e+01
5.362709122474747403e+01 5.954091698232323182e+01 6.361336016414141170e+01
5.333700284090909349e+01 5.906711647727272663e+01 6.341860006313131493e+01
5.339812184343434609e+01 5.906242108585858830e+01 6.351933396464646364e+01
5.377758049242424221e+01 5.956025094696969546e+01 6.395182291666666430e+01
5.385168087121212466e+01 5.977592329545454675e+01 6.404328440656566102e+01
5.376215277777777857e+01 5.967960858585858830e+01 6.395470328282828376e+01
5.382646780303030454e+01 5.973713699494949481e+01 6.396567234848485128e+01
5.397616792929292728e+01 5.997601010101010388e+01 6.415119949494949481e+01
5.416911300505050519e+01 6.026901830808080973e+01 6.433357007575757791e+01
5.432997948232323182e+01 6.056956281565656752e+01 6.452410827020202078e+01
5.449885574494949481e+01 6.084229008838384090e+01 6.468604008838383379e+01
5.462231691919191690e+01 6.108238636363636687e+01 6.479166666666667140e+01
5.472979797979797922e+01 6.128172348484848442e+01 6.492077020202020776e+01
5.481478851010101039e+01 6.154316603535353636e+01 6.503669507575757791e+01
5.501534880050505194e+01 6.178965435606060908e+01 6.519953440656566102e+01
5.514555713383838054e+01 6.207674400252525260e+01 6.536699021464646364e+01
5.527525252525252597e+01 6.233080808080808310e+01 6.550189393939393767e+01
5.539551767676767469e+01 6.263525883838384090e+01 6.565119949494949481e+01
5.559501262626262275e+01 6.292629419191919027e+01 6.580634469696970257e+01
5.573678188131312794e+01 6.319953440656565391e+01 6.598536142676768179e+01
5.588675820707070585e+01 6.346425189393939092e+01 6.613833648989898961e+01
5.599984217171716949e+01 6.371511994949494806e+01 6.628361742424242209e+01
5.618130523989898961e+01 6.400169665404040131e+01 6.644314236111111427e+01
5.634655145202020066e+01 6.426574337121212466e+01 6.661059816919191690e+01
5.651053503787878896e+01 6.455157039141414543e+01 6.677047821969696884e+01
5.666051136363636687e+01 6.482623106060606233e+01 6.692976641414141170e+01
5.680421401515151558e+01 6.511197916666667140e+01 6.707883522727273373e+01
5.692724116161615910e+01 6.536616161616161946e+01 6.718576388888888573e+01
5.709035669191919027e+01 6.564149305555555713e+01 6.734288194444444287e+01
5.726400726010101039e+01 6.595624210858585457e+01 6.753073705808080263e+01
5.743667140151514872e+01 6.623449337121212466e+01 6.768793402777777146e+01
5.754285037878787534e+01 6.649487058080808310e+01 6.779932133838383379e+01
5.727773832070707272e+01 6.621823705808080263e+01 6.745056029040404155e+01
5.627375315656565391e+01 6.465222537878787534e+01 6.608625315656566102e+01
5.551830808080808310e+01 6.329640151515151558e+01 6.534580176767676107e+01
5.528168402777777857e+01 6.290084438131312794e+01 6.526700599747475451e+01
5.527221433080808310e+01 6.275564236111111427e+01 6.522265625000000000e+01
5.497573390151514872e+01 6.231995738636363313e+01 6.495900410353534937e+01
5.469452335858586167e+01 6.174613320707070585e+01 6.462286931818181301e+01
5.451850536616161946e+01 6.138656092171716949e+01 6.449861900252524549e+01
5.474372632575757791e+01 6.158368844696969546e+01 6.471863162878787534e+01
5.495722853535353636e+01 6.200836489898989612e+01 6.503677398989898961e+01
5.498800505050505194e+01 6.206313131313131493e+01 6.503866792929292728e+01
5.491256313131312794e+01 6.200599747474747403e+01 6.496796085858585457e+01
5.500082859848485128e+01 6.209047506313131493e+01 6.504675662878787534e+01
5.514449179292929415e+01 6.230279356060606233e+01 6.520872790404040131e+01
5.529036458333333570e+01 6.256830018939393767e+01 6.537164614898989612e+01
5.542657039141413833e+01 6.286059816919191690e+01 6.558297821969696884e+01
5.559225063131312794e+01 6.309951073232323182e+01 6.573824179292928704e+01
5.570032354797979934e+01 6.334252683080808310e+01 6.589019097222222854e+01
5.584556502525252597e+01 6.356573547979797922e+01 6.601870265151515582e+01
5.595292771464646364e+01 6.375138099747474740e+01 6.608645044191919737e+01
5.609528882575757791e+01 6.397881155303030454e+01 6.621318655303029743e+01
5.622115688131312794e+01 6.424356849747475451e+01 6.637930082070707272e+01
5.635546875000000000e+01 6.451566445707071296e+01 6.653570864898989612e+01
5.652698863636363313e+01 6.482149621212121815e+01 6.669034090909090651e+01
5.670549242424242209e+01 6.507733585858585457e+01 6.683065025252524549e+01
5.681569602272727337e+01 6.537030460858585457e+01 6.697652304292928704e+01
5.700019728535353636e+01 6.562046243686869218e+01 6.713072127525252597e+01
5.712018623737373701e+01 6.588076073232323893e+01 6.724139835858585457e+01
5.727000473484848442e+01 6.617073074494949481e+01 6.741394412878787534e+01
5.743047664141413833e+01 6.641500946969696884e+01 6.751112689393939092e+01
5.756494633838384090e+01 6.667542613636364024e+01 6.762571022727273373e+01
5.748121843434343248e+01 6.666540404040404155e+01 6.751120580808080263e+01
5.677919823232323182e+01 6.560227272727273373e+01 6.658980429292928704e+01
5.602643623737373701e+01 6.433372790404040131e+01 6.580121527777777146e+01
5.576487531565656752e+01 6.382374526515151558e+01 6.562251420454545325e+01
5.575974589646464352e+01 6.377931660353535648e+01 6.568651357323231821e+01
5.567392676767676818e+01 6.352556818181817988e+01 6.557086489898989612e+01
5.540009469696969546e+01 6.310527146464646364e+01 6.533301767676768179e+01
5.531837910353535648e+01 6.291133996212121104e+01 6.524277935606060908e+01
5.556999684343434609e+01 6.323524305555555713e+01 6.554869002525252597e+01
5.579056186868687206e+01 6.354671717171716949e+01 6.577572601010101039e+01
5.569610164141413833e+01 6.347719381313131493e+01 6.570525568181818699e+01
5.566737689393939092e+01 6.341990214646464352e+01 6.565727588383838054e+01
5.570762310606060908e+01 6.348461174242424221e+01 6.573603219696970257e+01
5.588218118686868507e+01 6.372277462121212466e+01 6.589401830808080263e+01
5.604139046717171624e+01 6.399230587121212466e+01 6.606948390151515582e+01
5.618181818181817988e+01 6.421843434343433898e+01 6.621212121212121815e+01
5.629790088383838054e+01 6.446235795454545325e+01 6.631573547979797922e+01
5.640952493686868507e+01 6.465447443181818699e+01 6.642546559343433898e+01
5.650864109848485128e+01 6.488332544191919737e+01 6.653215751262625588e+01
5.662642045454545325e+01 6.504008838383838054e+01 6.663131313131313505e+01
5.674301609848485128e+01 6.528026357323231821e+01 6.674080650252524549e+01
5.685156250000000000e+01 6.550291982323231821e+01 6.689370265151515582e+01
5.693580334595959869e+01 6.572526041666667140e+01 6.698567708333332860e+01
5.712898516414141170e+01 6.594606218434343248e+01 6.711856849747475451e+01
5.724984217171716949e+01 6.620864898989898961e+01 6.726089015151515582e+01
5.740467171717171624e+01 6.648342803030303116e+01 6.737878787878787534e+01
5.753014520202020066e+01 6.670217803030303116e+01 6.750868055555555713e+01
5.758080808080808310e+01 6.677919823232323893e+01 6.750915404040404155e+01
5.699751420454545325e+01 6.605780460858585457e+01 6.681222380050505194e+01
5.622735164141413833e+01 6.465380366161616621e+01 6.590916982323231821e+01
5.574301609848485128e+01 6.379999210858586167e+01 6.550580018939393767e+01
5.571362058080808310e+01 6.360156250000000000e+01 6.549739583333332860e+01
5.551621685606060908e+01 6.328973327020202078e+01 6.535097064393939092e+01
5.525773358585858830e+01 6.282496843434343248e+01 6.511158459595959869e+01
5.504269255050505194e+01 6.240459280303030454e+01 6.489101957070707272e+01
5.511655618686868507e+01 6.239433396464646364e+01 6.495162563131313505e+01
5.541256313131312794e+01 6.285827020202020066e+01 6.534611742424242209e+01
5.549656723484848442e+01 6.299925031565656752e+01 6.546515940656566102e+01
5.538194444444444287e+01 6.291319444444444287e+01 6.536316287878787534e+01
5.546721117424242209e+01 6.292096748737373701e+01 6.539413667929292728e+01
5.554095643939393767e+01 6.310392992424242209e+01 6.551964962121212466e+01
5.571736900252525260e+01 6.336478061868687206e+01 6.574214804292928704e+01
5.591406250000000000e+01 6.364938446969696884e+01 6.592558396464646364e+01
5.605330650252525260e+01 6.388537720959595845e+01 6.606040877525252597e+01
5.613012941919191690e+01 6.408309659090909349e+01 6.617274305555555713e+01
5.627205650252525260e+01 6.428168402777777146e+01 6.628878630050505194e+01
5.637452651515151558e+01 6.454071969696970257e+01 6.640119949494949481e+01
5.649131944444444287e+01 6.473642676767676107e+01 6.653661616161616621e+01
5.663111584595959869e+01 6.497928503787878185e+01 6.668509311868686495e+01
5.680535827020202078e+01 6.522644412878787534e+01 6.683502998737374412e+01
5.688466698232323182e+01 6.549814551767676107e+01 6.698551925505050519e+01
5.710128630050505194e+01 6.576274463383838054e+01 6.715273832070707272e+01
5.725051294191919027e+01 6.602024147727273373e+01 6.731601167929292728e+01
5.736122948232323182e+01 6.627552872474747403e+01 6.743919665404040131e+01
5.751033775252525260e+01 6.651191603535353636e+01 6.754711174242424931e+01
5.760243055555555713e+01 6.670991161616161946e+01 6.764078282828282340e+01
5.770931976010101039e+01 6.691717960858585457e+01 6.777308238636364024e+01
5.790340909090909349e+01 6.717771464646465063e+01 6.792313762626262985e+01
5.802150410353535648e+01 6.746168718434343248e+01 6.808779198232323893e+01
5.824364741161615910e+01 6.772186710858585457e+01 6.824254261363635976e+01
5.813245738636363313e+01 6.768327809343433898e+01 6.810278566919191690e+01
5.733712121212121104e+01 6.637515782828282340e+01 6.708506944444444287e+01
5.639492582070707272e+01 6.477655460858585457e+01 6.614397885101010388e+01
5.604726957070707272e+01 6.402722537878787534e+01 6.589733270202020776e+01
5.591840277777777857e+01 6.382118055555555713e+01 6.588289141414141170e+01
5.573697916666666430e+01 6.336371527777777857e+01 6.565995896464646364e+01
5.534461805555555713e+01 6.273050820707070585e+01 6.528164457070707272e+01
5.511635890151514872e+01 6.225430082070707272e+01 6.502876420454545325e+01
5.513719223484848442e+01 6.223204703282828376e+01 6.511115056818181301e+01
5.549585700757575779e+01 6.270229640151514872e+01 6.550611584595959869e+01
5.560574494949494806e+01 6.289883207070707272e+01 6.565940656565656752e+01
5.555460858585858830e+01 6.281581439393939092e+01 6.558948863636364024e+01
5.556581439393939092e+01 6.282891414141413833e+01 6.563289141414141170e+01
5.567266414141413833e+01 6.299147727272727337e+01 6.575962752525252597e+01
5.580823863636363313e+01 6.328345959595959869e+01 6.598327020202020776e+01
5.604087752525252597e+01 6.356849747474747403e+01 6.617992424242424931e+01
5.614023042929292728e+01 6.377501578282828376e+01 6.633325441919191690e+01
5.626740056818182012e+01 6.398551925505050519e+01 6.647731218434343248e+01
5.637985321969696884e+01 6.420513731060606233e+01 6.661691130050505194e+01
5.652758049242424221e+01 6.442436079545454675e+01 6.675737847222222854e+01
5.664902935606060908e+01 6.468138415404040131e+01 6.689618844696970257e+01
5.681822127525252597e+01 6.490692077020202078e+01 6.704612531565656752e+01
5.694574652777777857e+01 6.519227430555555713e+01 6.718990688131313505e+01
5.716358901515151558e+01 6.544483901515151558e+01 6.735029987373737015e+01
5.722896938131312794e+01 6.572881155303029743e+01 6.748417771464646364e+01
5.738719223484848442e+01 6.599167455808080263e+01 6.766244476010101039e+01
5.748772885101010388e+01 6.626156092171717660e+01 6.781490688131313505e+01
5.769977114898989612e+01 6.651826862373737015e+01 6.795355902777777146e+01
5.783554292929292728e+01 6.677099116161616621e+01 6.811047979797979224e+01
5.796583017676767469e+01 6.702059659090909349e+01 6.825576073232323893e+01
5.807058869949494806e+01 6.727639678030303116e+01 6.836746369949494806e+01
5.825138099747474740e+01 6.755441130050505194e+01 6.851085069444444287e+01
5.839891098484848442e+01 6.785613952020202078e+01 6.866927083333332860e+01
5.855232007575757791e+01 6.811923926767676107e+01 6.883499053030303116e+01
5.844416824494949481e+01 6.806301294191919737e+01 6.866181344696970257e+01
5.768442234848485128e+01 6.682836174242424931e+01 6.769436553030303116e+01
5.677982954545454675e+01 6.519933712121212466e+01 6.673547979797979224e+01
5.639792455808080973e+01 6.437235637626262985e+01 6.642144097222222854e+01
5.630839646464646364e+01 6.414362373737374412e+01 6.640498737373737015e+01
5.611233428030303116e+01 6.377016256313131493e+01 6.621097695707071296e+01
5.570438762626262275e+01 6.319002525252525260e+01 6.585890151515151558e+01
5.553089488636363313e+01 6.272533933080808310e+01 6.563884943181818699e+01
5.554667771464646364e+01 6.275753630050505194e+01 6.573575599747475451e+01
5.591733743686868507e+01 6.323031092171716949e+01 6.613182607323231821e+01
5.601081123737373701e+01 6.340096275252525260e+01 6.624376578282827666e+01
5.595127051767676818e+01 6.332816445707070585e+01 6.617996369949494806e+01
5.594527304292929415e+01 6.333510890151514872e+01 6.618091066919191690e+01
5.604146938131312794e+01 6.352110953282828376e+01 6.631987847222222854e+01
5.625998263888888573e+01 6.382769097222222143e+01 6.657595486111111427e+01
5.647103851010101039e+01 6.411040088383838054e+01 6.676538825757575069e+01
5.660381155303030454e+01 6.439374210858585457e+01 6.695892518939393767e+01
5.675134154040404155e+01 6.465380366161616621e+01 6.711182133838383379e+01
5.686197916666666430e+01 6.485929608585858830e+01 6.726144255050505194e+01
5.701171875000000000e+01 6.508005839646465063e+01 6.737567077020202078e+01
5.713979640151514872e+01 6.527789614898989612e+01 6.749380523989898961e+01
5.728267045454545325e+01 6.554750631313130782e+01 6.764883207070707272e+01
5.740660511363636687e+01 6.583068970959595845e+01 6.781395991161616621e+01
5.756155303030303116e+01 6.611332070707071296e+01 6.796496212121212466e+01
5.769562815656565391e+01 6.639259785353534937e+01 6.809777462121212466e+01
5.785815183080808310e+01 6.664760890151515582e+01 6.825130208333332860e+01
5.798062657828283051e+01 6.690234375000000000e+01 6.839555713383838054e+01
5.815143623737373701e+01 6.716264204545454675e+01 6.853069760101010388e+01
5.822889046717171624e+01 6.739145359848484418e+01 6.864445233585858830e+01
5.837156723484848442e+01 6.758384627525252597e+01 6.875193339646465063e+01
5.844468118686868507e+01 6.783877840909090651e+01 6.886845012626262985e+01
5.858873895202020066e+01 6.812456597222222854e+01 6.897715435606060908e+01
5.872462910353535648e+01 6.837945864898989612e+01 6.911998895202020776e+01
5.885089172979797922e+01 6.857563920454545325e+01 6.920884627525252597e+01
5.842929292929292728e+01 6.804608585858585457e+01 6.867739898989898961e+01
5.749775094696969546e+01 6.633960700757575069e+01 6.752805397727273373e+01
5.674779040404040131e+01 6.499889520202020776e+01 6.680523989898989612e+01
5.659446022727272663e+01 6.461418876262625588e+01 6.674171401515151558e+01
5.654940025252525260e+01 6.451515151515151558e+01 6.676436237373737015e+01
5.631573547979797922e+01 6.411339962121212466e+01 6.652975063131313505e+01
5.602955334595959869e+01 6.362961647727272663e+01 6.624672506313130782e+01
5.608633207070707272e+01 6.354940025252525260e+01 6.626609848484848442e+01
5.633305713383838054e+01 6.395632102272727337e+01 6.662851167929292728e+01
5.644819286616161946e+01 6.412290877525252597e+01 6.674017518939393767e+01
5.630914614898989612e+01 6.398244160353535648e+01 6.662874842171717660e+01
5.635235164141413833e+01 6.395225694444444287e+01 6.664386047979797922e+01
5.643473800505050519e+01 6.411592487373737015e+01 6.678622159090909349e+01
5.665546085858586167e+01 6.441682449494949481e+01 6.700363005050505194e+01
5.680168876262626299e+01 6.468836805555555713e+01 6.718458017676768179e+01
5.694902146464646364e+01 6.491840277777777146e+01 6.732607323232323893e+01
5.702272727272727337e+01 6.512547348484848442e+01 6.744760101010101039e+01
5.720150726010101039e+01 6.533944917929292728e+01 6.756056660353534937e+01
5.726491477272727337e+01 6.554916351010101039e+01 6.768600063131313505e+01
5.738608743686868507e+01 6.577402935606060908e+01 6.779344223484848442e+01
5.749944760101010388e+01 6.599439709595959869e+01 6.792432133838383379e+01
5.766816603535353636e+01 6.623413825757575069e+01 6.805942234848484418e+01
5.775169665404040131e+01 6.647802241161616621e+01 6.821113478535353636e+01
5.792041508838384090e+01 6.673259943181818699e+01 6.833266256313130782e+01
5.800493213383838054e+01 6.701645359848484418e+01 6.848362531565656752e+01
5.817408459595959869e+01 6.723642676767676107e+01 6.857623106060606233e+01
5.823070549242424221e+01 6.743383049242424931e+01 6.868982796717172334e+01
5.839867424242424221e+01 6.769223484848484418e+01 6.881723484848484418e+01
5.848914930555555713e+01 6.799451546717172334e+01 6.893564551767676107e+01
5.866493055555555713e+01 6.817787247474747403e+01 6.903235479797979224e+01
5.844558869949494806e+01 6.796468592171717660e+01 6.876061395202020776e+01
5.754403409090909349e+01 6.642818813131313505e+01 6.766587752525252597e+01
5.664397885101010388e+01 6.479454703282827666e+01 6.669258996212121815e+01
5.630650252525252597e+01 6.413762626262625588e+01 6.648058712121212466e+01
5.625106534090909349e+01 6.396555397727272663e+01 6.645261205808080263e+01
5.602612058080808310e+01 6.356526199494949481e+01 6.621914457070707272e+01
5.566457544191919027e+01 6.295071811868687206e+01 6.587006786616161946e+01
5.549696180555555713e+01 6.258139993686868507e+01 6.570608428030303116e+01
5.564480744949494806e+01 6.274928977272727337e+01 6.589812184343433898e+01
5.594890309343434609e+01 6.321010890151514872e+01 6.625319602272726627e+01
5.594519412878787534e+01 6.329004892676767469e+01 6.628641887626262985e+01
5.589824021464646364e+01 6.317380839646464352e+01 6.622526041666667140e+01
5.592593907828283051e+01 6.323386205808080973e+01 6.626526988636364024e+01
5.609887941919191690e+01 6.349708017676767469e+01 6.648319128787878185e+01
5.631332859848485128e+01 6.379312657828283051e+01 6.667096748737374412e+01
5.648378314393939092e+01 6.412282986111111427e+01 6.688908617424242209e+01
5.658435921717171624e+01 6.433830492424242209e+01 6.699739583333332860e+01
5.670363794191919027e+01 6.453649779040404155e+01 6.712125157828282340e+01
5.685365372474747403e+01 6.476716382575757791e+01 6.727000473484848442e+01
5.695482165404040131e+01 6.498843907828282340e+01 6.740384311868686495e+01
5.702351641414141170e+01 6.521796085858585457e+01 6.750710227272726627e+01
5.726530934343434609e+01 6.547443181818181301e+01 6.769696969696970257e+01
5.738285195707070585e+01 6.574096433080808310e+01 6.783723958333332860e+01
5.751669034090909349e+01 6.599522569444444287e+01 6.797013099747475451e+01
5.761935763888888573e+01 6.624877683080808310e+01 6.811083491161616621e+01
5.777166193181817988e+01 6.650540561868686495e+01 6.823772885101010388e+01
5.791856060606060908e+01 6.678551136363635976e+01 6.839898989898989612e+01
5.811004577020202078e+01 6.706111900252524549e+01 6.855054450757575069e+01
5.817743844696969546e+01 6.732863794191919737e+01 6.868690814393939092e+01
5.826747948232323182e+01 6.753641887626262985e+01 6.872028882575757791e+01
5.841299715909090651e+01 6.775832544191919737e+01 6.885175978535353636e+01
5.856115845959595845e+01 6.803464330808080263e+01 6.900355113636364024e+01
5.873188920454545325e+01 6.835562657828282340e+01 6.917333491161616621e+01
5.887815656565656752e+01 6.864236111111111427e+01 6.935148358585858830e+01
5.880504261363636687e+01 6.855756786616161946e+01 6.914090119949494806e+01
5.783735795454545325e+01 6.700086805555555713e+01 6.794120896464646364e+01
5.676136363636363313e+01 6.510385101010101039e+01 6.679861111111111427e+01
5.634165877525252597e+01 6.418698705808080263e+01 6.641062973484848442e+01
5.623729482323232531e+01 6.398650568181817988e+01 6.641390467171717660e+01
5.600615530303030454e+01 6.356912878787878896e+01 6.618923611111111427e+01
5.558759469696969546e+01 6.289709595959595845e+01 6.580160984848484418e+01
5.536134785353535648e+01 6.234256628787878896e+01 6.558120265151515582e+01
5.539453125000000000e+01 6.236059816919191690e+01 6.568572443181818699e+01
5.574964488636363313e+01 6.279462594696969546e+01 6.609876104797979224e+01
5.584248737373737725e+01 6.303393308080808310e+01 6.623279671717172334e+01
5.578503787878787534e+01 6.293481691919191690e+01 6.612105429292928704e+01
5.577406881313131493e+01 6.290838068181817988e+01 6.615869633838383379e+01
5.589654356060606233e+01 6.304758522727272663e+01 6.630531881313130782e+01
5.605713383838384090e+01 6.336884469696969546e+01 6.651515151515151558e+01
5.626357323232323182e+01 6.368181818181817988e+01 6.675268308080808310e+01
5.642128314393939092e+01 6.395963541666666430e+01 6.688940183080808310e+01
5.656348642676767469e+01 6.419006470959595845e+01 6.702260890151515582e+01
5.667349273989898961e+01 6.445805713383838054e+01 6.717301925505050519e+01
5.681758996212121104e+01 6.467191445707071296e+01 6.729786142676768179e+01
5.694807449494949481e+01 6.489725378787878185e+01 6.745722853535353636e+01
5.711766098484848442e+01 6.516721906565656752e+01 6.763502209595959869e+01
5.719870580808080973e+01 6.542534722222222854e+01 6.778046085858585457e+01
5.744337910353535648e+01 6.572731218434343248e+01 6.797857481060606233e+01
5.752422664141413833e+01 6.599187184343433898e+01 6.810866477272726627e+01
5.771105587121212466e+01 6.626803188131313505e+01 6.827276672979797922e+01
5.780496369949494806e+01 6.653239425505050519e+01 6.838261521464646364e+01
5.796654040404040131e+01 6.682717803030303116e+01 6.858128156565656752e+01
5.817609690656565391e+01 6.713506155303029743e+01 6.875800978535353636e+01
5.833037405303030454e+01 6.739887152777777146e+01 6.889839804292928704e+01
5.837330334595959869e+01 6.758589804292928704e+01 6.896342329545454675e+01
5.784126420454545325e+01 6.683353061868686495e+01 6.826613794191919737e+01
5.685637626262626299e+01 6.521070075757575069e+01 6.718181818181818699e+01
5.632181186868687206e+01 6.418039772727273373e+01 6.664409722222222854e+01
5.623141571969696884e+01 6.393959122474747403e+01 6.662977430555555713e+01
5.615250157828283051e+01 6.373220486111111427e+01 6.653997001262625588e+01
5.583183396464646364e+01 6.322403724747474740e+01 6.627690972222222854e+01
5.559556502525252597e+01 6.269152462121212466e+01 6.603401199494949481e+01
5.551921559343434609e+01 6.259670928030303116e+01 6.606451231060606233e+01
5.583325441919191690e+01 6.297687815656565391e+01 6.640648674242424931e+01
5.594965277777777857e+01 6.325473484848485128e+01 6.660006313131313505e+01
5.593611900252525260e+01 6.318974905303030454e+01 6.651834753787878185e+01
5.591524621212121104e+01 6.316887626262626299e+01 6.653708964646465063e+01
5.599127998737373701e+01 6.330693655303030454e+01 6.665068655303029743e+01
5.617732007575757791e+01 6.355595012626262275e+01 6.685282512626262985e+01
5.634371054292929415e+01 6.380157039141413833e+01 6.700627367424242209e+01
5.649151672979797922e+01 6.408400410353534937e+01 6.718738162878787534e+01
5.661856849747474740e+01 6.433621369949494806e+01 6.730733112373737015e+01
5.670959595959595845e+01 6.456691919191919737e+01 6.741366792929292728e+01
5.688336489898989612e+01 6.478014520202020776e+01 6.753377525252524549e+01
5.694748263888888573e+01 6.498772885101010388e+01 6.762472380050505194e+01
5.716268150252525260e+01 6.522881155303029743e+01 6.780314867424242209e+01
5.719053819444444287e+01 6.544306344696970257e+01 6.791118213383838054e+01
5.735562657828283051e+01 6.568738162878787534e+01 6.808700284090909349e+01
5.747774621212121104e+01 6.593166035353534937e+01 6.822506313131313505e+01
5.763182607323232531e+01 6.619038036616161946e+01 6.836935763888888573e+01
5.775860164141413833e+01 6.646456755050505194e+01 6.851081123737374412e+01
5.787168560606060908e+01 6.672711489898989612e+01 6.858854166666667140e+01
5.781553819444444287e+01 6.667933238636364024e+01 6.852197758838383379e+01
5.707800662878787534e+01 6.555875157828282340e+01 6.761888415404040131e+01
5.631719539141413833e+01 6.419456281565656752e+01 6.677174084595959869e+01
5.601436237373737725e+01 6.363383838383838054e+01 6.655271464646465063e+01
5.599711963383838054e+01 6.348480902777777857e+01 6.656104008838383379e+01
5.587788036616161946e+01 6.323788667929292728e+01 6.644432607323231821e+01
5.559931344696969546e+01 6.280906723484848442e+01 6.623346748737374412e+01
5.554529671717171624e+01 6.256597222222222143e+01 6.616066919191919737e+01
5.573832070707070585e+01 6.287452651515151558e+01 6.645754419191919737e+01
5.587788036616161946e+01 6.312866950757575779e+01 6.659173768939393767e+01
5.572616792929292728e+01 6.295565025252525260e+01 6.646401515151515582e+01
5.571657986111111427e+01 6.286446496212121104e+01 6.639603061868686495e+01
5.578267045454545325e+01 6.292092803030303116e+01 6.647916666666667140e+01
5.596693497474747403e+01 6.314433396464646364e+01 6.664607007575757791e+01
5.599996054292929415e+01 6.337164614898989612e+01 6.677268781565656752e+01
5.619736426767676818e+01 6.360898042929292728e+01 6.690411931818181301e+01
5.626905776515151558e+01 6.385491635101010388e+01 6.703263099747475451e+01
5.639887152777777857e+01 6.403397253787878185e+01 6.712062026515151558e+01
5.648753156565656752e+01 6.418260732323231821e+01 6.719902146464646364e+01
5.657729640151514872e+01 6.436691130050505194e+01 6.726826862373737015e+01
5.660882260101010388e+01 6.451964962121212466e+01 6.735077335858585457e+01
5.678989109848485128e+01 6.473196811868686495e+01 6.743162089646465063e+01
5.689401830808080973e+01 6.497735164141414543e+01 6.758593750000000000e+01
5.701455965909090651e+01 6.522889046717172334e+01 6.774577809343433898e+01
5.716879734848485128e+01 6.543568497474747403e+01 6.786576704545454675e+01
5.733380681818182012e+01 6.567692550505050519e+01 6.802509469696970257e+01
5.730827809343434609e+01 6.571642203282827666e+01 6.796484375000000000e+01
5.665269886363636687e+01 6.473729482323231821e+01 6.714796401515151558e+01
5.572865372474747403e+01 6.312385574494949481e+01 6.611785827020202078e+01
5.529679608585858830e+01 6.234256628787878896e+01 6.577122790404040131e+01
5.516536458333333570e+01 6.207903251262626299e+01 6.575690498737374412e+01
5.501333648989898961e+01 6.180595012626262275e+01 6.563596906565656752e+01
5.475461647727272663e+01 6.129612531565656752e+01 6.536841066919191690e+01
5.461209753787878896e+01 6.094969223484848442e+01 6.523236268939393767e+01
5.475343276515151558e+01 6.118888099747474740e+01 6.546397569444444287e+01
5.498812342171716949e+01 6.149475220959595845e+01 6.568446180555555713e+01
5.492120422979797922e+01 6.143461963383838054e+01 6.559576231060606233e+01
5.487673611111111427e+01 6.134059343434343248e+01 6.553835227272726627e+01
5.484919507575757791e+01 6.139512310606060908e+01 6.553448547979797922e+01
5.504624368686868507e+01 6.162705176767676818e+01 6.569113005050505194e+01
5.518852588383838054e+01 6.190127840909090651e+01 6.586671401515151558e+01
5.534090909090909349e+01 6.213210227272727337e+01 6.598121843434343248e+01
5.541820549242424221e+01 6.232413983585858830e+01 6.607966382575757791e+01
5.555883049242424221e+01 6.253089488636363313e+01 6.621523832070707272e+01
5.561868686868687206e+01 6.270012626262626299e+01 6.625962752525252597e+01
5.574719854797979934e+01 6.288845486111111427e+01 6.637393465909090651e+01
5.580930397727272663e+01 6.306609059343434609e+01 6.644598327020202078e+01
5.592155934343434609e+01 6.330271464646464352e+01 6.655018939393939092e+01
5.603760258838384090e+01 6.354707228535353636e+01 6.672762784090909349e+01
5.624550189393939092e+01 6.381778724747474740e+01 6.686182133838383379e+01
5.635085227272727337e+01 6.404024621212121815e+01 6.693260732323231821e+01
5.624068813131312794e+01 6.393355429292929415e+01 6.677351641414141170e+01
5.551672979797979934e+01 6.278393308080808310e+01 6.587184343434343248e+01
5.466177398989898961e+01 6.124273989898989612e+01 6.493150252525252597e+01
5.424818497474747403e+01 6.054000946969696884e+01 6.469894255050505194e+01
5.413170770202020066e+01 6.026365214646464352e+01 6.465774936868686495e+01
5.388328598484848442e+01 5.980958017676767469e+01 6.437050189393939092e+01
5.360306186868687206e+01 5.925520833333333570e+01 6.403882575757575069e+01
5.343339646464646364e+01 5.891792929292929415e+01 6.388873106060606233e+01
5.366481218434343248e+01 5.913324652777777857e+01 6.411872632575757791e+01
5.398982007575757791e+01 5.964875315656565391e+01 6.447735164141414543e+01
5.395521622474747403e+01 5.972115688131312794e+01 6.444227430555555713e+01
5.389902935606060908e+01 5.964508364898989612e+01 6.439082228535353636e+01
5.397557607323232531e+01 5.976645359848485128e+01 6.447731218434343248e+01
5.410728377525252597e+01 6.003420928030303116e+01 6.467451862373737015e+01
5.436087436868687206e+01 6.033325441919191690e+01 6.488612689393939092e+01
5.449068813131312794e+01 6.062594696969696884e+01 6.505034722222222854e+01
5.469093276515151558e+01 6.089784564393939092e+01 6.520340119949494806e+01
5.479636205808080973e+01 6.115068655303030454e+01 6.534323705808080263e+01
5.491619318181817988e+01 6.143008207070707272e+01 6.545186237373737015e+01
5.503464330808080973e+01 6.167084911616161946e+01 6.557994002525252597e+01
5.521425189393939092e+01 6.194199810606060908e+01 6.572861426767676107e+01
5.534248737373737725e+01 6.218560606060606233e+01 6.589330808080808310e+01
5.551933396464646364e+01 6.249644886363636687e+01 6.604269255050505194e+01
5.563817866161615910e+01 6.276696654040404155e+01 6.617447916666667140e+01
5.579612531565656752e+01 6.307611268939393767e+01 6.632879577020202078e+01
5.596744791666666430e+01 6.337748579545454675e+01 6.651684816919191690e+01
5.611158459595959869e+01 6.368623737373737725e+01 6.660195707070707272e+01
5.625773358585858830e+01 6.397269570707070585e+01 6.675094696969696884e+01
5.639192708333333570e+01 6.422352430555555713e+01 6.688293087121212466e+01
5.655890940656565391e+01 6.445726799242424931e+01 6.705748895202020776e+01
5.674301609848485128e+01 6.474064867424242209e+01 6.722549715909090651e+01
5.688395675505050519e+01 6.504509943181818699e+01 6.739879261363635976e+01
5.702170138888888573e+01 6.531999684343433898e+01 6.754947916666667140e+01
5.677706755050505194e+01 6.504379734848484418e+01 6.721330492424242209e+01
5.577450284090909349e+01 6.344464172979797922e+01 6.595979324494949481e+01
5.489993686868687206e+01 6.197348484848485128e+01 6.510842803030303116e+01
5.468173926767676818e+01 6.151349431818182012e+01 6.497277462121212466e+01
5.458720012626262275e+01 6.126380997474747403e+01 6.493678977272726627e+01
5.431830018939393767e+01 6.075090751262626299e+01 6.466331281565656752e+01
5.400560290404040131e+01 6.010266729797979934e+01 6.436639835858585457e+01
5.387334280303030454e+01 5.974960542929292728e+01 6.423761047979797922e+01
5.392514993686868507e+01 5.990116003787878896e+01 6.446334438131313505e+01
5.427517361111111427e+01 6.037949810606060908e+01 6.480437184343433898e+01
5.428097380050505194e+01 6.048662405303030454e+01 6.483021622474747403e+01
5.426945233585858830e+01 6.043927556818182012e+01 6.477718592171717660e+01
5.429742739898989612e+01 6.050623421717171624e+01 6.484524936868686495e+01
5.452316130050505194e+01 6.075264362373737725e+01 6.499996054292928704e+01
5.463833648989898961e+01 6.105295138888888573e+01 6.518237058080808310e+01
5.479292929292929415e+01 6.132938762626262275e+01 6.533838383838383379e+01
5.491690340909090651e+01 6.157283775252525260e+01 6.546220012626262985e+01
5.503227588383838054e+01 6.179158775252525260e+01 6.558420138888888573e+01
5.517838541666666430e+01 6.200682607323232531e+01 6.569401041666667140e+01
5.527442392676767469e+01 6.229020675505050519e+01 6.585554766414141170e+01
5.546476483585858830e+01 6.252237215909090651e+01 6.599790877525252597e+01
5.557741477272727337e+01 6.275244633838384090e+01 6.611955492424242209e+01
5.567952967171716949e+01 6.305295138888888573e+01 6.625213068181818699e+01
5.590538194444444287e+01 6.332804608585858830e+01 6.639417613636364024e+01
5.601858428030303116e+01 6.358092645202020066e+01 6.655125473484848442e+01
5.617941130050505194e+01 6.387906407828283051e+01 6.667593907828282340e+01
5.632240372474747403e+01 6.414926609848484418e+01 6.684481534090909349e+01
5.648820233585858830e+01 6.438482481060606233e+01 6.697226167929292728e+01
5.658826546717171624e+01 6.463261521464646364e+01 6.710846748737374412e+01
5.673709753787878896e+01 6.484678819444444287e+01 6.725082859848484418e+01
5.690644728535353636e+01 6.514981849747475451e+01 6.742522885101010388e+01
5.706167140151514872e+01 6.544503630050505194e+01 6.759907670454545325e+01
5.716504892676767469e+01 6.569298453282827666e+01 6.770434816919191690e+01
5.689654356060606233e+01 6.536592487373737015e+01 6.733562184343433898e+01
5.597099905303030454e+01 6.384915561868687206e+01 6.617301925505050519e+01
5.521208175505050519e+01 6.252726483585858830e+01 6.536833175505050519e+01
5.492353219696969546e+01 6.201680871212121104e+01 6.525213068181818699e+01
5.485432449494949481e+01 6.179734848484848442e+01 6.521875000000000000e+01
5.457808554292929415e+01 6.129699337121212466e+01 6.494345801767676107e+01
5.428168402777777857e+01 6.063332544191919027e+01 6.459513099747475451e+01
5.412077809343434609e+01 6.027418718434343248e+01 6.448504577020202078e+01
5.430531881313131493e+01 6.045225694444444287e+01 6.469010416666667140e+01
5.455796243686868507e+01 6.088624526515151558e+01 6.502718592171717660e+01
5.453614267676767469e+01 6.086773989898989612e+01 6.494886363636364024e+01
5.440072601010101039e+01 6.075142045454545325e+01 6.484832702020202078e+01
5.445754419191919027e+01 6.080397727272727337e+01 6.489378156565656752e+01
5.462168560606060908e+01 6.101294191919191690e+01 6.504608585858585457e+01
5.475753630050505194e+01 6.123780776515151558e+01 6.521066130050505194e+01
5.488237847222222143e+01 6.148670296717171624e+01 6.534134311868686495e+01
5.503843118686868507e+01 6.174629103535353636e+01 6.548603219696970257e+01
5.515952493686868507e+01 6.198654513888888573e+01 6.561643781565656752e+01
5.524711963383838054e+01 6.215116003787878896e+01 6.567088857323231821e+01
5.536205808080808310e+01 6.238068181818182012e+01 6.579971590909090651e+01
5.547486584595959869e+01 6.261075599747474740e+01 6.592451862373737015e+01
5.561620107323232531e+01 6.282800662878787534e+01 6.604865056818181301e+01
5.573587436868687206e+01 6.308767361111111427e+01 6.614843750000000000e+01
5.584876104797979934e+01 6.335175978535353636e+01 6.628594539141414543e+01
5.600749684343434609e+01 6.359303977272727337e+01 6.640822285353534937e+01
5.615968276515151558e+01 6.385523200757575779e+01 6.655883049242424931e+01
5.628156565656565391e+01 6.411994949494949481e+01 6.670707070707071296e+01
5.642984532828283051e+01 6.437018623737374412e+01 6.684903724747475451e+01
5.650954861111111427e+01 6.447593118686869218e+01 6.687697285353534937e+01
5.590672348484848442e+01 6.372064393939393767e+01 6.619917929292928704e+01
5.500903566919191690e+01 6.216938920454545325e+01 6.504391571969696884e+01
5.449131944444444287e+01 6.122427398989898961e+01 6.462799873737374412e+01
5.443197601010101039e+01 6.094902146464646364e+01 6.459548611111111427e+01
5.434520991161615910e+01 6.073394097222222143e+01 6.453018465909090651e+01
5.407291666666666430e+01 6.026672979797979934e+01 6.427130681818181301e+01
5.384390782828283051e+01 5.986284722222222143e+01 6.405445075757575069e+01
5.404616477272727337e+01 6.003811553030303116e+01 6.427690972222222854e+01
5.424558080808080973e+01 6.044476010101010388e+01 6.453803661616161946e+01
5.425331439393939092e+01 6.044933712121212466e+01 6.448437500000000000e+01
5.415336963383838054e+01 6.030646306818182012e+01 6.438711332070707272e+01
5.421871054292929415e+01 6.038348327020202078e+01 6.445371685606060908e+01
5.433143939393939092e+01 6.064362373737373701e+01 6.459532828282827666e+01
5.455575284090909349e+01 6.088514046717171624e+01 6.477087279040404155e+01
5.469302398989898961e+01 6.116934974747474740e+01 6.493623737373737015e+01
5.487890625000000000e+01 6.144803503787878896e+01 6.511233428030303116e+01
5.498342803030303116e+01 6.166240530303030454e+01 6.524763257575757791e+01
5.506605113636363313e+01 6.187791982323232531e+01 6.532646780303029743e+01
5.512930082070707272e+01 6.207311395202020066e+01 6.542775410353534937e+01
5.530906723484848442e+01 6.229723011363636687e+01 6.551929450757575069e+01
5.536979166666666430e+01 6.250410353535353636e+01 6.564709595959595845e+01
5.557773042929292728e+01 6.279300820707070585e+01 6.576207386363635976e+01
5.573776830808080973e+01 6.307883522727272663e+01 6.597135416666667140e+01
5.590964330808080973e+01 6.338265467171716949e+01 6.612823547979797922e+01
5.598966224747474740e+01 6.361718750000000000e+01 6.627217487373737015e+01
5.605835700757575779e+01 6.368635574494949481e+01 6.625722064393939092e+01
5.534994476010101039e+01 6.273236268939393767e+01 6.537724905303029743e+01
5.446815814393939092e+01 6.107011521464646364e+01 6.429407354797979224e+01
5.395857007575757791e+01 6.022040719696969546e+01 6.386261047979797922e+01
5.386773989898989612e+01 5.997380050505050519e+01 6.385211489898989612e+01
5.374238478535353636e+01 5.970513731060606233e+01 6.378531407828283051e+01
5.348997790404040131e+01 5.921725063131312794e+01 6.353274936868687206e+01
5.328089488636363313e+01 5.887543402777777857e+01 6.337653882575757791e+01
5.349017518939393767e+01 5.909686710858586167e+01 6.360018150252525260e+01
5.380800189393939092e+01 5.955310921717171624e+01 6.396740845959595845e+01
5.380512152777777857e+01 5.959741950757575779e+01 6.394401041666666430e+01
5.371756628787878896e+01 5.951601957070707272e+01 6.382410037878787534e+01
5.378610321969696884e+01 5.956151357323232531e+01 6.386407039141413833e+01
5.393256786616161946e+01 5.981956281565656752e+01 6.407271938131313505e+01
5.410018150252525260e+01 6.015052872474747403e+01 6.425943023989898961e+01
5.429407354797979934e+01 6.042728061868687206e+01 6.442917455808080263e+01
5.442814867424242209e+01 6.067972695707070585e+01 6.457982165404040131e+01
5.458443813131312794e+01 6.092297979797979934e+01 6.471401515151515582e+01
5.469373421717171624e+01 6.117921401515151558e+01 6.481210542929292728e+01
5.481747159090909349e+01 6.141232638888888573e+01 6.494326073232323893e+01
5.493442234848485128e+01 6.164023042929292728e+01 6.506178977272726627e+01
5.508274147727272663e+01 6.188845486111111427e+01 6.521373895202020776e+01
5.527769886363636687e+01 6.218000315656565391e+01 6.537807765151515582e+01
5.539283459595959869e+01 6.243102904040404155e+01 6.550299873737374412e+01
5.548843907828283051e+01 6.268746054292929415e+01 6.562306660353534937e+01
5.572076231060606233e+01 6.300658933080808310e+01 6.583124210858585457e+01
5.589954229797979934e+01 6.332331123737373701e+01 6.603022411616161946e+01
5.602371369949494806e+01 6.358431976010101039e+01 6.617964804292928704e+01
5.590404040404040131e+01 6.344065656565656752e+01 6.598184974747475451e+01
5.490250157828283051e+01 6.191970486111111427e+01 6.470837279040404155e+01
5.399861900252525260e+01 6.021815814393939092e+01 6.368343592171716949e+01
5.363202335858586167e+01 5.960598169191919027e+01 6.345099431818182012e+01
5.355370107323232531e+01 5.933605587121212466e+01 6.342491319444444287e+01
5.324183238636363313e+01 5.887204071969696884e+01 6.321405460858586167e+01
5.288573232323232531e+01 5.825457702020202078e+01 6.288304924242424221e+01
5.264895044191919027e+01 5.786280776515151558e+01 6.266678503787878896e+01
5.287129103535353636e+01 5.804900568181817988e+01 6.290696022727272663e+01
5.322356376262626299e+01 5.860535037878787534e+01 6.335156250000000000e+01
5.333692392676767469e+01 5.873670296717171624e+01 6.341504892676767469e+01
5.326428345959595845e+01 5.868000315656565391e+01 6.334903724747474740e+01
5.333802872474747403e+01 5.876416508838384090e+01 6.343083175505050519e+01
5.350469539141413833e+01 5.900437973484848442e+01 6.361754261363636687e+01
5.373129734848485128e+01 5.935187815656565391e+01 6.387744633838384090e+01
5.389859532828283051e+01 5.970699179292929415e+01 6.406257891414141170e+01
5.409706439393939092e+01 5.997995580808080973e+01 6.423721590909090651e+01
5.416800820707070585e+01 6.024818497474747403e+01 6.434809027777777146e+01
5.438020833333333570e+01 6.048421717171716949e+01 6.451925505050505194e+01
5.452580492424242209e+01 6.076017992424242209e+01 6.468126578282827666e+01
5.469034090909090651e+01 6.106344696969696884e+01 6.486773989898989612e+01
5.486833175505050519e+01 6.132603377525252597e+01 6.501921559343433898e+01
5.502734375000000000e+01 6.163024779040404155e+01 6.517601799242424931e+01
5.515885416666666430e+01 6.195336174242424221e+01 6.535377209595959869e+01
5.534098800505050519e+01 6.227312184343434609e+01 6.552454229797979224e+01
5.552024147727272663e+01 6.256601167929292728e+01 6.567680713383838054e+01
5.569764046717171624e+01 6.284836647727272663e+01 6.583637152777777146e+01
5.579884785353535648e+01 6.318158143939393767e+01 6.600055239898989612e+01
5.597344539141413833e+01 6.342467645202020066e+01 6.616347064393939092e+01
5.611008522727272663e+01 6.368694760101010388e+01 6.633136047979797922e+01
5.630066287878787534e+01 6.392960858585858830e+01 6.648532196969696884e+01
5.642317708333333570e+01 6.424056976010101039e+01 6.665897253787878185e+01
5.666646938131312794e+01 6.459528882575757791e+01 6.689737215909090651e+01
5.685677083333333570e+01 6.491627209595959869e+01 6.708830492424242209e+01
5.682457386363636687e+01 6.497750946969696884e+01 6.703259154040404155e+01
5.585211489898989612e+01 6.357370580808080973e+01 6.579687500000000000e+01
5.470588699494949481e+01 6.149108270202020066e+01 6.445714962121212466e+01
5.412448705808080973e+01 6.047896938131312794e+01 6.399238478535353636e+01
5.408120265151514872e+01 6.022529987373737725e+01 6.399455492424242209e+01
5.385610006313131493e+01 5.984315814393939092e+01 6.384536773989898961e+01
5.344988952020202078e+01 5.918821022727272663e+01 6.350733901515151558e+01
5.315333017676767469e+01 5.862997159090909349e+01 6.322892992424242209e+01
5.318915719696969546e+01 5.858325441919191690e+01 6.328306502525252597e+01
5.359864267676767469e+01 5.911695075757575779e+01 6.375820707070707272e+01
5.380610795454545325e+01 5.939370265151514872e+01 6.397782512626262275e+01
5.369649621212121104e+01 5.934564393939393767e+01 6.388273358585858830e+01
5.373125789141413833e+01 5.936556976010101039e+01 6.392033617424242209e+01
5.387764362373737725e+01 5.956403882575757791e+01 6.409592013888888573e+01
5.404580965909090651e+01 5.988687657828283051e+01 6.432485006313130782e+01
5.424100378787878896e+01 6.022332702020202078e+01 6.454608585858585457e+01
5.448926767676767469e+01 6.052541035353535648e+01 6.475173611111111427e+01
5.461852904040404155e+01 6.084264520202020066e+01 6.494902146464646364e+01
5.479632260101010388e+01 6.109698547979797922e+01 6.505153093434343248e+01
5.487614425505050519e+01 6.136762152777777857e+01 6.517775410353534937e+01
5.506703756313131493e+01 6.161154513888888573e+01 6.531877367424242209e+01
5.516958648989898961e+01 6.189054608585858830e+01 6.549818497474747403e+01
5.536134785353535648e+01 6.217526830808080973e+01 6.567384785353534937e+01
5.550406407828283051e+01 6.246918402777777857e+01 6.581830018939393767e+01
5.568233112373737725e+01 6.279580965909090651e+01 6.598851799242424931e+01
5.581186868686868507e+01 6.306881313131312794e+01 6.611789772727273373e+01
5.596930239898989612e+01 6.336702967171716949e+01 6.626017992424242209e+01
5.611138731060606233e+01 6.364074337121212466e+01 6.644472064393939092e+01
5.630433238636363313e+01 6.395616319444444287e+01 6.662914299242424931e+01
5.645059974747474740e+01 6.423469065656566102e+01 6.680618686868686495e+01
5.656131628787878896e+01 6.444310290404040131e+01 6.688817866161616621e+01
5.598031092171716949e+01 6.368864425505050519e+01 6.618091066919191690e+01
5.492728061868687206e+01 6.180464804292929415e+01 6.487772253787878185e+01
5.421472537878787534e+01 6.057047032828283051e+01 6.424297664141414543e+01
5.419266887626262275e+01 6.029225852272727337e+01 6.429431029040404155e+01
5.412724905303030454e+01 6.019795612373737725e+01 6.427844854797979224e+01
5.391603535353535648e+01 5.979797979797979934e+01 6.409264520202020776e+01
5.365155460858586167e+01 5.937062026515151558e+01 6.385720486111111427e+01
5.379869002525252597e+01 5.950418244949494806e+01 6.406210542929292728e+01
5.414046717171716949e+01 6.002951388888888573e+01 6.448437500000000000e+01
5.422486584595959869e+01 6.012227746212121104e+01 6.450564236111111427e+01
5.410337752525252597e+01 6.000820707070707272e+01 6.442613636363635976e+01
5.413139204545454675e+01 6.004553345959595845e+01 6.444736426767676107e+01
5.427245107323232531e+01 6.029044349747474740e+01 6.462772253787878185e+01
5.449794823232323182e+01 6.061379419191919027e+01 6.486174242424242209e+01
5.460637626262626299e+01 6.097017045454545325e+01 6.501483585858585457e+01
5.487697285353535648e+01 6.127217487373737725e+01 6.523776830808080263e+01
5.501771622474747403e+01 6.152907986111111427e+01 6.539034880050505194e+01
5.513458806818182012e+01 6.179620422979797922e+01 6.552852746212121815e+01
5.514942392676767469e+01 6.196223958333333570e+01 6.558108428030303116e+01
5.534367108585858830e+01 6.221046401515151558e+01 6.569341856060606233e+01
5.543990688131312794e+01 6.244353693181817988e+01 6.584931344696970257e+01
5.562188289141413833e+01 6.273946496212121104e+01 6.601156092171717660e+01
5.582374526515151558e+01 6.307074652777777857e+01 6.622257733585858830e+01
5.602252998737373701e+01 6.341836332070707272e+01 6.639153251262625588e+01
5.617286142676767469e+01 6.369495738636363313e+01 6.654596748737374412e+01
5.618162089646464352e+01 6.376006155303030454e+01 6.651037720959595845e+01
5.530835700757575779e+01 6.258944917929292728e+01 6.551274463383838054e+01
5.438154987373737725e+01 6.081147411616161946e+01 6.437791982323231821e+01
5.390940656565656752e+01 5.996559343434343248e+01 6.410148358585858830e+01
5.391788983585858830e+01 5.977963226010101039e+01 6.412859059343433898e+01
5.370454545454545325e+01 5.951625631313131493e+01 6.399873737373737725e+01
5.348974116161615910e+01 5.901830808080808310e+01 6.371006944444444287e+01
5.325860164141413833e+01 5.867148042929292728e+01 6.353432765151514872e+01
5.344629892676767469e+01 5.888948074494949481e+01 6.379131155303030454e+01
5.380930397727272663e+01 5.944835069444444287e+01 6.418982796717172334e+01
5.389839804292929415e+01 5.954596748737373701e+01 6.422668087121212466e+01
5.376874210858586167e+01 5.942499210858586167e+01 6.413253630050505194e+01
5.383652935606060908e+01 5.951692708333333570e+01 6.420095486111111427e+01
5.402616003787878896e+01 5.982824337121212466e+01 6.443335700757575069e+01
5.426266571969696884e+01 6.017696496212121104e+01 6.468706597222222854e+01
5.443244949494949481e+01 6.050284090909090651e+01 6.486253156565656752e+01
5.462665719696969546e+01 6.080831755050505194e+01 6.503101325757575069e+01
5.473319128787878896e+01 6.108199179292929415e+01 6.516721906565656752e+01
5.490924873737373701e+01 6.132386363636363313e+01 6.531092171717172334e+01
5.496555397727272663e+01 6.155125473484848442e+01 6.542799084595959869e+01
5.509982638888888573e+01 6.180958017676767469e+01 6.552170138888888573e+01
5.528965435606060908e+01 6.208889678030303116e+01 6.569258996212121815e+01
5.546058238636363313e+01 6.238671875000000000e+01 6.589066445707071296e+01
5.561126893939393767e+01 6.271306818181817988e+01 6.603929924242424931e+01
5.581691919191919027e+01 6.301167929292929415e+01 6.623800505050505194e+01
5.594937657828283051e+01 6.329438920454545325e+01 6.640344854797979224e+01
5.611923926767676818e+01 6.357773042929292728e+01 6.654616477272726627e+01
5.624925031565656752e+01 6.382106218434343248e+01 6.663387784090909349e+01
5.640534248737373701e+01 6.410783617424242209e+01 6.679691445707071296e+01
5.653925978535353636e+01 6.441710069444444287e+01 6.701290246212121815e+01
5.674317392676767469e+01 6.470703125000000000e+01 6.718982796717172334e+01
5.672352430555555713e+01 6.477671243686869218e+01 6.718059501262625588e+01
5.590427714646464352e+01 6.349281881313131493e+01 6.606210542929292728e+01
5.468872316919191690e+01 6.152852746212121104e+01 6.475990372474747403e+01
5.426744002525252597e+01 6.051096906565656752e+01 6.438880997474747403e+01
5.412267203282828376e+01 6.027971117424242209e+01 6.442696496212121815e+01
5.396748737373737725e+01 5.991966540404040131e+01 6.428693181818181301e+01
5.358187342171716949e+01 5.929146938131312794e+01 6.392467645202020066e+01
5.334552556818182012e+01 5.877655460858586167e+01 6.366575915404040131e+01
5.332958491161615910e+01 5.871200284090909349e+01 6.371752683080808310e+01
5.370273042929292728e+01 5.924581755050505194e+01 6.415506628787878185e+01
5.390845959595959869e+01 5.958364898989898961e+01 6.438083964646465063e+01
5.383621369949494806e+01 5.949199021464646364e+01 6.430575284090909349e+01
5.381463068181817988e+01 5.952501578282828376e+01 6.434098800505050519e+01
5.397506313131312794e+01 5.971417297979797922e+01 6.447806186868686495e+01
5.417558396464646364e+01 6.005279356060606233e+01 6.474676452020202078e+01
5.441189236111111427e+01 6.038222064393939092e+01 6.498149463383838054e+01
5.456451231060606233e+01 6.067609690656565391e+01 6.516220801767676107e+01
5.470458491161615910e+01 6.090991950757575779e+01 6.528807607323231821e+01
5.479541508838384090e+01 6.115226483585858830e+01 6.541141887626262985e+01
5.497494476010101039e+01 6.142728061868687206e+01 6.555591066919191690e+01
5.498713699494949481e+01 6.170857007575757791e+01 6.565001578282827666e+01
5.525445864898989612e+01 6.196815814393939092e+01 6.585467960858585457e+01
5.533278093434343248e+01 6.227533143939393767e+01 6.601396780303029743e+01
5.560053661616161946e+01 6.257749368686868507e+01 6.621590909090909349e+01
5.574854008838384090e+01 6.291378630050505194e+01 6.638948074494949481e+01
5.589981849747474740e+01 6.317175662878787534e+01 6.655843592171717660e+01
5.600402462121212466e+01 6.342952967171716949e+01 6.667242739898989612e+01
5.617226957070707272e+01 6.368016098484848442e+01 6.679348169191919737e+01
5.635578440656565391e+01 6.399451546717171624e+01 6.697178819444444287e+01
5.658459595959595845e+01 6.435842803030303116e+01 6.712515782828282340e+01
5.667499210858586167e+01 6.458408301767676107e+01 6.727205650252524549e+01
5.647360321969696884e+01 6.440431660353534937e+01 6.702505523989898961e+01
5.551937342171716949e+01 6.290147569444444287e+01 6.585254892676768179e+01
5.473248106060606233e+01 6.143339646464646364e+01 6.498816287878787534e+01
5.445395359848485128e+01 6.094732481060606233e+01 6.492854324494949481e+01
5.439618844696969546e+01 6.078981218434343248e+01 6.494274779040404155e+01
5.418726325757575779e+01 6.038912563131312794e+01 6.475402462121212466e+01
5.393205492424242209e+01 5.985519255050505194e+01 6.443221275252524549e+01
5.374352904040404155e+01 5.955413510101010388e+01 6.431076388888888573e+01
5.399439709595959869e+01 5.978637941919191690e+01 6.454884785353534937e+01
5.429573074494949481e+01 6.029636205808080973e+01 6.492199337121212466e+01
5.432713857323232531e+01 6.038427241161615910e+01 6.493540877525252597e+01
5.423630839646464352e+01 6.031332859848485128e+01 6.485546875000000000e+01
5.430496369949494806e+01 6.040628945707070585e+01 6.492554450757575069e+01
5.445103377525252597e+01 6.067009943181817988e+01 6.511785827020202078e+01
5.464737215909090651e+01 6.095860953282828376e+01 6.529794034090909349e+01
5.479474431818182012e+01 6.123871527777777857e+01 6.545557133838383379e+01
5.499270044191919027e+01 6.151937342171716949e+01 6.560965119949494806e+01
5.510736268939393767e+01 6.181238162878787534e+01 6.578255208333332860e+01
5.525769412878787534e+01 6.202237215909090651e+01 6.586770044191919737e+01
5.534244791666666430e+01 6.225106534090909349e+01 6.596239741161616621e+01
5.543331755050505194e+01 6.249171401515151558e+01 6.604790088383838054e+01
5.561470170454545325e+01 6.277663352272727337e+01 6.624696180555555713e+01
5.576396780303030454e+01 6.303779987373737725e+01 6.636987058080808310e+01
5.590261994949494806e+01 6.329719065656565391e+01 6.652367424242424931e+01
5.609288194444444287e+01 6.358230744949494806e+01 6.667242739898989612e+01
5.617937184343434609e+01 6.390617108585858830e+01 6.679158775252524549e+01
5.640459280303030454e+01 6.416216856060606233e+01 6.693773674242424931e+01
5.633755523989898961e+01 6.419140625000000000e+01 6.686770044191919737e+01
5.561367582070707272e+01 6.308621369949494806e+01 6.593801294191919737e+01
5.476365214646464352e+01 6.162476325757575779e+01 6.505310921717172334e+01
5.449581755050505194e+01 6.099565972222222143e+01 6.483641098484848442e+01
5.448816287878787534e+01 6.089756944444444287e+01 6.485621843434343248e+01
5.432488952020202078e+01 6.066990214646464352e+01 6.477091224747475451e+01
5.410724431818182012e+01 6.029442866161615910e+01 6.455721275252524549e+01
5.404794034090909349e+01 6.013032670454545325e+01 6.452095170454545325e+01
5.431916824494949481e+01 6.051629577020202078e+01 6.482579703282827666e+01
5.453369633838384090e+01 6.084335542929292728e+01 6.500765467171717660e+01
5.444448390151514872e+01 6.076108743686868507e+01 6.489098011363635976e+01
5.441583806818182012e+01 6.071492266414141170e+01 6.485980902777777146e+01
5.449885574494949481e+01 6.082224589646464352e+01 6.493351483585858830e+01
5.466177398989898961e+01 6.105145202020202078e+01 6.509264520202020776e+01
5.476014046717171624e+01 6.134079071969696884e+01 6.524419981060606233e+01
5.494045928030303116e+01 6.163537720959595845e+01 6.542436079545454675e+01
5.506025094696969546e+01 6.188695549242424221e+01 6.554936079545454675e+01
5.522498421717171624e+01 6.210203598484848442e+01 6.566516729797979224e+01
5.525422190656565391e+01 6.228342013888888573e+01 6.570134943181818699e+01
5.536284722222222143e+01 6.245817550505050519e+01 6.577840909090909349e+01
5.544483901515151558e+01 6.265522411616161946e+01 6.588628472222222854e+01
5.568540877525252597e+01 6.296429135101010388e+01 6.607129892676768179e+01
5.587109375000000000e+01 6.328192077020202078e+01 6.622352430555555713e+01
5.597869318181817988e+01 6.353456439393939092e+01 6.636679292929292728e+01
5.600043402777777857e+01 6.377537089646464352e+01 6.642909564393939092e+01
5.593063446969696884e+01 6.357883522727272663e+01 6.624329229797979224e+01
5.503791824494949481e+01 6.217901672979797922e+01 6.522194602272726627e+01
5.431163194444444287e+01 6.081068497474747403e+01 6.443963068181818699e+01
5.406036931818182012e+01 6.037034406565656752e+01 6.436324179292928704e+01
5.406040877525252597e+01 6.023922821969696884e+01 6.436454387626262985e+01
5.385361426767676818e+01 5.992369002525252597e+01 6.420020517676768179e+01
5.367451862373737725e+01 5.951921559343434609e+01 6.398528251262626299e+01
5.367266414141413833e+01 5.952320075757575779e+01 6.403661616161616621e+01
5.405764678030303116e+01 6.003192077020202078e+01 6.447920612373737015e+01
5.411162405303030454e+01 6.017601799242424221e+01 6.451961016414141170e+01
5.404367897727272663e+01 6.004494160353535648e+01 6.442009943181818699e+01
5.400145991161615910e+01 6.006948390151514872e+01 6.442554450757575069e+01
5.415940656565656752e+01 6.025836489898989612e+01 6.457070707070707272e+01
5.435440340909090651e+01 6.057015467171716949e+01 6.477896148989898961e+01
5.455184659090909349e+01 6.086576704545454675e+01 6.491122159090909349e+01
5.465044981060606233e+01 6.113892834595959869e+01 6.506064551767676107e+01
5.479569128787878896e+01 6.136261047979797922e+01 6.521220012626262985e+01
5.490865688131312794e+01 6.159457859848485128e+01 6.529596748737374412e+01
5.504182449494949481e+01 6.179640151515151558e+01 6.539898989898989612e+01
5.512338226010101039e+01 6.202537089646464352e+01 6.548922821969696884e+01
5.526045612373737725e+01 6.222904829545454675e+01 6.562567077020202078e+01
5.536324179292929415e+01 6.245588699494949481e+01 6.573398042929292728e+01
5.554687500000000000e+01 6.275094696969696884e+01 6.592313762626262985e+01
5.572309027777777857e+01 6.309509154040404155e+01 6.608309659090909349e+01
5.588900726010101039e+01 6.335649463383838054e+01 6.624696180555555713e+01
5.593544823232323182e+01 6.352967171717171624e+01 6.627809343434343248e+01
5.540928819444444287e+01 6.280843592171716949e+01 6.565802556818181301e+01
5.443296243686868507e+01 6.114918718434343248e+01 6.451534880050505194e+01
5.389090119949494806e+01 6.008203125000000000e+01 6.405030776515151558e+01
5.374719854797979934e+01 5.974909248737373701e+01 6.401645359848484418e+01
5.355776515151514872e+01 5.940388257575757791e+01 6.382386363636363313e+01
5.322222222222222143e+01 5.887089646464646364e+01 6.351404671717171624e+01
5.301373106060606233e+01 5.842440025252525260e+01 6.325441919191919027e+01
5.306395991161615910e+01 5.842223011363636687e+01 6.332216698232323182e+01
5.346026672979797922e+01 5.897731218434343248e+01 6.376992582070707272e+01
5.358057133838384090e+01 5.925039457070707272e+01 6.394357638888888573e+01
5.352923768939393767e+01 5.916765309343434609e+01 6.383779198232323182e+01
5.353152619949494806e+01 5.920608428030303116e+01 6.387006786616161946e+01
5.369195864898989612e+01 5.943895991161615910e+01 6.406301294191919737e+01
5.394712752525252597e+01 5.975710227272727337e+01 6.426215277777777146e+01
5.410483743686868507e+01 6.008747632575757791e+01 6.443864425505050519e+01
5.426775568181817988e+01 6.038502209595959869e+01 6.459461805555555713e+01
5.439973958333333570e+01 6.062464488636363313e+01 6.473086332070707272e+01
5.446871054292929415e+01 6.087227746212121104e+01 6.487827493686869218e+01
5.464488636363636687e+01 6.114204545454545325e+01 6.499652777777777146e+01
5.476448074494949481e+01 6.139200599747474740e+01 6.513490372474747403e+01
5.494491792929292728e+01 6.165814393939393767e+01 6.529734848484848442e+01
5.504813762626262275e+01 6.196180555555555713e+01 6.542092803030303116e+01
5.523307291666666430e+01 6.224080650252525260e+01 6.560681029040404155e+01
5.541043244949494806e+01 6.255484532828283051e+01 6.576601957070707272e+01
5.558838383838384090e+01 6.285085227272727337e+01 6.591051136363635976e+01
5.572391887626262275e+01 6.313443023989898961e+01 6.607682291666667140e+01
5.586919981060606233e+01 6.341070864898989612e+01 6.620174400252524549e+01
5.598307291666666430e+01 6.365526357323232531e+01 6.636075599747475451e+01
5.619929766414141170e+01 6.394787720959595845e+01 6.654509943181818699e+01
5.635961174242424221e+01 6.429158775252524549e+01 6.676428345959595845e+01
5.648693970959595845e+01 6.453002683080808310e+01 6.689997632575757791e+01
5.627848800505050519e+01 6.433846275252524549e+01 6.663028724747475451e+01
5.539165088383838054e+01 6.283877840909090651e+01 6.544373421717172334e+01
5.452734375000000000e+01 6.141291824494949481e+01 6.463561395202020776e+01
5.437535511363636687e+01 6.096231849747474740e+01 6.452797506313130782e+01
5.425935132575757791e+01 6.074025410353535648e+01 6.446294981060606233e+01
5.400607638888888573e+01 6.030658143939393767e+01 6.424565972222222854e+01
5.371137152777777857e+01 5.971926294191919027e+01 6.396563289141413833e+01
5.352967171717171624e+01 5.941619318181817988e+01 6.386663510101010388e+01
5.374510732323232531e+01 5.968087121212121104e+01 6.411979166666667140e+01
5.408218907828283051e+01 6.019724589646464352e+01 6.451826862373737015e+01
5.411549084595959869e+01 6.030520044191919027e+01 6.453152619949494806e+01
5.411852904040404155e+01 6.026215277777777857e+01 6.447301136363635976e+01
5.420857007575757791e+01 6.044547032828283051e+01 6.458909406565656752e+01
5.440404040404040131e+01 6.069318181818182012e+01 6.476972853535353636e+01
5.454316603535353636e+01 6.101696654040404155e+01 6.495494002525252597e+01
5.474226641414141170e+01 6.134232954545454675e+01 6.515751262626262985e+01
5.487306660353535648e+01 6.161091382575757791e+01 6.532145675505050519e+01
5.505026830808080973e+01 6.186939709595959869e+01 6.544941603535353636e+01
5.511639835858586167e+01 6.211371527777777857e+01 6.557630997474747403e+01
5.525536616161615910e+01 6.239409722222222143e+01 6.571417297979797922e+01
5.544061710858586167e+01 6.267562342171716949e+01 6.587937973484848442e+01
5.560574494949494806e+01 6.299100378787878896e+01 6.599952651515151558e+01
5.573003472222222143e+01 6.328701073232323182e+01 6.614275568181818699e+01
5.590668402777777857e+01 6.355709438131312794e+01 6.634797190656566102e+01
5.607212752525252597e+01 6.384895833333333570e+01 6.650552398989898961e+01
5.626609848484848442e+01 6.413841540404040131e+01 6.670959595959595845e+01
5.642680713383838054e+01 6.442475536616161946e+01 6.686635890151515582e+01
5.659793244949494806e+01 6.469184027777777146e+01 6.704206123737374412e+01
5.673429608585858830e+01 6.496693497474747403e+01 6.716422032828282340e+01
5.688048453282828376e+01 6.524175347222222854e+01 6.731861584595959869e+01
5.697573390151514872e+01 6.551298137626262985e+01 6.745947758838383379e+01
5.717874053030303116e+01 6.579300820707071296e+01 6.762713068181818699e+01
5.734438131313131493e+01 6.606565656565656752e+01 6.777635732323231821e+01
5.752485795454545325e+01 6.635692866161616621e+01 6.794815340909090651e+01
5.769799558080808310e+01 6.670730744949494806e+01 6.816753472222222854e+01
5.782820391414141170e+01 6.699518623737374412e+01 6.826017992424242209e+01
5.784146148989898961e+01 6.703590593434343248e+01 6.820888573232323893e+01
5.703728693181817988e+01 6.577213541666667140e+01 6.717365056818181301e+01
5.606703756313131493e+01 6.419440498737374412e+01 6.621555397727273373e+01
5.576601957070707272e+01 6.353401199494949481e+01 6.600339330808080263e+01
5.570265151515151558e+01 6.340041035353535648e+01 6.599321338383838054e+01
5.549636994949494806e+01 6.303630050505050519e+01 6.577919823232323893e+01
5.512144886363636687e+01 6.242826704545454675e+01 6.543694760101010388e+01
5.492925347222222143e+01 6.189658301767676818e+01 6.523323074494949481e+01
5.495675505050505194e+01 6.190104166666666430e+01 6.530776515151515582e+01
5.522502367424242209e+01 6.231009311868687206e+01 6.566410195707071296e+01
5.526921559343434609e+01 6.245718907828283051e+01 6.571366003787878185e+01
5.519823232323232531e+01 6.232433712121212466e+01 6.559990530303029743e+01
5.520825441919191690e+01 6.231920770202020066e+01 6.561939709595959869e+01
5.538222064393939092e+01 6.248812342171716949e+01 6.574459438131313505e+01
5.548761047979797922e+01 6.270557133838384090e+01 6.586197916666667140e+01
5.563936237373737725e+01 6.297253787878787534e+01 6.604640151515151558e+01
5.573985953282828376e+01 6.322912720959595845e+01 6.618383049242424931e+01
5.589271622474747403e+01 6.346121369949494806e+01 6.628886521464646364e+01
